sample,time,ecg_channel1,ecg_channel2,heart_rate
0,0.0,-0.00035728428243805203,0.03694651232835666,75.0
1,0.004,-0.012577264675400822,0.03567717244548383,75.0
2,0.008,0.005502760250750482,0.012485284599381535,75.0
3,0.012,-0.0067577037449302714,0.009952484461713592,75.0
4,0.016,0.06338240020353751,0.03405029546145874,75.0
5,0.02,0.07949773257920831,0.0060512237726692494,75.0
6,0.024,0.07951163581066562,0.02596588439550319,75.0
7,0.028,0.08702228815303106,0.10686282013002983,75.0
8,0.032,0.09293400744612615,0.1162862833852964,75.0
9,0.036,0.07252221899599288,0.0839658992144903,75.0
10,0.04,0.05869487024956408,0.1438403632460853,75.0
11,0.044,0.10067832667775711,0.0846114976625126,75.0
12,0.048,0.08533358186413718,0.10761588140109778,75.0
13,0.052,0.1357373150347628,0.10308819075982881,75.0
14,0.056,0.16109695910048977,0.1372488969171142,75.0
15,0.06,0.09200338225888065,0.113981838552331,75.0
16,0.064,0.09320944163265445,0.14276810989963165,75.0
17,0.068,0.12167695355918635,0.11275184064539487,75.0
18,0.072,0.10721860690451816,0.1066195724274401,75.0
19,0.076,0.11563350019401375,0.14540458676418333,75.0
20,0.08,0.09711961403830788,0.12529192469399936,75.0
21,0.084,0.12166637687722869,0.12699354144388753,75.0
22,0.088,0.10628719752758882,0.07358954394600266,75.0
23,0.092,0.08436931394628341,0.05596022216896173,75.0
24,0.096,0.07389242996939115,0.05024615122172317,75.0
25,0.1,0.05753647810088968,0.10073630585874341,75.0
26,0.104,0.07994056799828378,0.08916390663525335,75.0
27,0.108,0.04570540047791704,0.04802118947722403,75.0
28,0.112,0.06651949906213007,0.07445696802251102,75.0
29,0.116,0.08169833043422339,0.012799816233654735,75.0
30,0.12,-0.01533762632617852,-0.04931315790698704,75.0
31,0.124,-0.13535277006259794,-0.11552249338712736,75.0
32,0.128,-0.16180222668666236,-0.10546251048290987,75.0
33,0.132,-0.10098314408952977,-0.09985200652277064,75.0
34,0.136,0.3491450378612115,0.3358757300452713,75.0
35,0.14,0.7564609997393035,0.7007154226563889,75.0
36,0.144,0.9191263658268503,0.9194965386975149,75.0
37,0.148,0.7458383426395752,0.7513084185900109,75.0
38,0.152,0.3600434881867491,0.3653418677425515,75.0
39,0.156,0.12273367297029493,0.14887053821593588,75.0
40,0.16,0.09147839590970112,0.06543017203048944,75.0
41,0.164,0.021399129693897602,0.031653807973705324,75.0
42,0.168,-0.06127216463377281,-0.06807974892229292,75.0
43,0.172,-0.17306822018634335,-0.17844792653102803,75.0
44,0.176,-0.2320972943148667,-0.23274628683157872,75.0
45,0.18,-0.14872229488596636,-0.15907677469379453,75.0
46,0.184,-0.06705651727414148,-0.09016662252021734,75.0
47,0.188,0.0402821651829076,0.0054294398386660735,75.0
48,0.192,0.02994579320980929,0.07074241324165159,75.0
49,0.196,0.03960542362211399,0.04276527220065232,75.0
50,0.2,0.08401737903399233,0.031895211047212636,75.0
51,0.204,0.04950644208131096,0.03217236226135763,75.0
52,0.208,0.06292875951157913,0.10024840703518208,75.0
53,0.212,0.10340231816156215,0.07860551106770251,75.0
54,0.216,0.0454546247390108,0.061556999545174705,75.0
55,0.22,0.097033261372762,0.1057409358662585,75.0
56,0.224,0.09629032510412906,0.06385200139680122,75.0
57,0.228,0.113772406413704,0.10944872707122014,75.0
58,0.232,0.09787807943444286,0.12087701738898904,75.0
59,0.236,0.13307000166864508,0.1418769604454981,75.0
60,0.24,0.16151004994834048,0.152877896323536,75.0
61,0.244,0.17916455955273247,0.16234096793970076,75.0
62,0.248,0.17035953485653438,0.17404736173656035,75.0
63,0.252,0.1924662873350997,0.16410461003921928,75.0
64,0.256,0.16331471054950536,0.2136871917558112,75.0
65,0.26,0.20320854429328694,0.21332029214820833,75.0
66,0.264,0.21718057775942542,0.21175946660305836,75.0
67,0.268,0.2565503781294893,0.21959335074674569,75.0
68,0.272,0.24810413469353892,0.24952390966127905,75.0
69,0.276,0.32476023444048635,0.24601786258529287,75.0
70,0.28,0.2736811759176672,0.27366759467269736,75.0
71,0.284,0.309076261416255,0.27818962903379135,75.0
72,0.288,0.32988204736241733,0.29128634794012803,75.0
73,0.292,0.32792482078103335,0.3265675053076661,75.0
74,0.296,0.3219154756724513,0.3467170192260603,75.0
75,0.3,0.3233530801889834,0.3116306827969602,75.0
76,0.304,0.3143969078384118,0.31865731154409244,75.0
77,0.308,0.35858859685661987,0.3505018842427081,75.0
78,0.312,0.34635302192671713,0.31660905643325987,75.0
79,0.316,0.35421240037317514,0.33018573917460176,75.0
80,0.32,0.37187920103787575,0.33715485208050566,75.0
81,0.324,0.3613875108719107,0.322792934908889,75.0
82,0.328,0.33185462675836647,0.3106261993816767,75.0
83,0.332,0.33253412004205085,0.3427835373197103,75.0
84,0.336,0.34939784130823964,0.30897322689929485,75.0
85,0.34,0.3223243815619827,0.30795890010708704,75.0
86,0.344,0.30697808286864725,0.3233680048257259,75.0
87,0.348,0.3319090326979763,0.3147212596189475,75.0
88,0.352,0.3416159646208955,0.30093295306220824,75.0
89,0.356,0.3078640451138147,0.29137923315567155,75.0
90,0.36,0.33347219099414227,0.3181021841063374,75.0
91,0.364,0.31515563518896456,0.28001578622657947,75.0
92,0.368,0.261029888725061,0.2799178325578307,75.0
93,0.372,0.26674907795402275,0.24263485464754375,75.0
94,0.376,0.26065261444904153,0.22226959137462596,75.0
95,0.38,0.24254048428131894,0.20626881952104217,75.0
96,0.384,0.21859487545318704,0.1909113980956929,75.0
97,0.388,0.23487966052697168,0.20850140600589664,75.0
98,0.392,0.20860140891193532,0.22209372530584018,75.0
99,0.396,0.21746870215704767,0.18529468999947873,75.0
100,0.4,0.1854478389302712,0.19370241214501283,75.0
101,0.404,0.17361083295156907,0.174909147405524,75.0
102,0.408,0.13978427701841575,0.10718779254425687,75.0
103,0.412,0.15057508573835754,0.1026299846989959,75.0
104,0.416,0.15442930170281402,0.12925747809673854,75.0
105,0.42,0.13864168626970316,0.10703353065178312,75.0
106,0.424,0.11057159584834035,0.13361018629607874,75.0
107,0.428,0.06988584599576002,0.12580732464463726,75.0
108,0.432,0.09725524782491717,0.09678023718999122,75.0
109,0.436,0.09205726165165849,0.0766744705125937,75.0
110,0.44,0.09375930764634693,0.08388164636017792,75.0
111,0.444,0.11431170095422506,0.08328830333264242,75.0
112,0.448,0.07312331502012623,0.0934789407860395,75.0
113,0.452,0.06227481119822327,0.046090405481998796,75.0
114,0.456,0.07322402558782236,0.08071336874758524,75.0
115,0.46,0.11048730753221085,0.09971899984376113,75.0
116,0.464,0.07337214928040892,0.11057877523494355,75.0
117,0.468,0.057200073024506116,0.11224946542198441,75.0
118,0.472,0.05829696036315894,0.06504932922390538,75.0
119,0.476,0.09664082015394831,0.09795024849650545,75.0
120,0.48,0.05129126465198047,0.05298844923764254,75.0
121,0.484,0.09019123600421669,0.07459452428509257,75.0
122,0.488,0.10026627521096948,0.11016487826590779,75.0
123,0.492,0.06785855395348118,0.061374216125755575,75.0
124,0.496,0.06811116786839749,0.07043821071667813,75.0
125,0.5,0.1283198647383967,0.0784987178058316,75.0
126,0.504,0.08963165453132386,0.13938821013326683,75.0
127,0.508,0.09372335574499402,0.11451747280790955,75.0
128,0.512,0.08900853296291235,0.08803842600264464,75.0
129,0.516,0.09554236523392312,0.07726971992627801,75.0
130,0.52,0.08045458840437783,0.08483342082017326,75.0
131,0.524,0.10786242745613749,0.09055771367457136,75.0
132,0.528,0.08473599749394446,0.05260999264704514,75.0
133,0.532,0.09026869849589728,0.10796762834146785,75.0
134,0.536,0.10825511428774241,0.105811746411321,75.0
135,0.54,0.09272144320175184,0.11138189835247901,75.0
136,0.544,0.05742321276974745,0.09058551951926179,75.0
137,0.548,0.06795739574330426,0.09608014315957947,75.0
138,0.552,0.08842507355635489,0.09812278127029375,75.0
139,0.556,0.10414288955567194,0.11619437498389175,75.0
140,0.56,0.10006302604426763,0.07852512525638874,75.0
141,0.564,0.08835104479218958,0.09642404758408345,75.0
142,0.568,0.0690736835504656,0.08578736299250105,75.0
143,0.572,0.08976481255612284,0.09295851478883001,75.0
144,0.576,0.07209929970703895,0.11688016073717901,75.0
145,0.58,0.08844709015813458,0.07422563434606533,75.0
146,0.584,0.11153301697132413,0.09329911242242835,75.0
147,0.588,0.08135617706653832,0.11108935449248361,75.0
148,0.592,0.10459115314029725,0.08321982356628392,75.0
149,0.596,0.09858935905502167,0.0950625144551176,75.0
150,0.6,0.0911450623692953,0.06443985697230434,75.0
151,0.604,0.07435378444424066,0.09067810721713407,75.0
152,0.608,0.09331221862203481,0.13948468525540905,75.0
153,0.612,0.09917304007110307,0.0936720391894556,75.0
154,0.616,0.11149912738440358,0.07666937518885997,75.0
155,0.62,0.08458669911895446,0.09323967769796673,75.0
156,0.624,0.08113036710091874,0.07750488925231974,75.0
157,0.628,0.08554377512974741,0.08860848099747073,75.0
158,0.632,0.08303161027783541,0.0782942033921997,75.0
159,0.636,0.07378261790460545,0.06412306348359202,75.0
160,0.64,0.06549640071022046,0.058088670609038065,75.0
161,0.644,0.06186483871722153,0.1268811349127464,75.0
162,0.648,0.046320164858371315,0.05156406822408232,75.0
163,0.652,0.07611347261380408,0.039188397147350236,75.0
164,0.656,0.0996740187927192,0.08138981974257904,75.0
165,0.66,0.05108537247405642,0.0590487357687642,75.0
166,0.664,0.07986389423150592,0.055713753666896286,75.0
167,0.668,0.09344949916381029,0.07103441245634882,75.0
168,0.672,0.057460581207656534,0.12019903584876604,75.0
169,0.676,0.10711607215746173,0.06502143880583522,75.0
170,0.68,0.08702602124542042,0.06135479304132021,75.0
171,0.684,0.08250745788419234,0.038304183793348635,75.0
172,0.688,0.09641927596582285,0.046797278366591026,75.0
173,0.692,0.07808793116658093,0.06239025502347913,75.0
174,0.696,0.06256537317571245,0.05629611202209624,75.0
175,0.7,0.08005812950842243,0.028576955964607246,75.0
176,0.704,0.07856787738830812,0.1039708928755997,75.0
177,0.708,0.045725923028464684,0.03737918443493012,75.0
178,0.712,0.06912409764034162,0.06161390630586681,75.0
179,0.716,0.06895387968487715,0.0690730447967398,75.0
180,0.72,0.0911889443719005,0.09885445612756168,75.0
181,0.724,0.07856121339896831,0.10480660312828251,75.0
182,0.728,0.08720723495581108,0.09995356218557537,75.0
183,0.732,0.048802332639011514,0.03989452664963429,75.0
184,0.736,0.04620346297578682,0.07123783411110993,75.0
185,0.74,0.06558945907181928,0.044900264625364686,75.0
186,0.744,0.06458870961235783,0.0788259654766978,75.0
187,0.748,0.05539311113021597,0.033301333458445034,75.0
188,0.752,0.08162404308446575,0.0961118150668901,75.0
189,0.756,0.04934617180485926,0.06811296588191129,75.0
190,0.76,0.04961946034968513,0.06582250781754616,75.0
191,0.764,0.06987706050527893,0.054764310776138005,75.0
192,0.768,0.07290692739456221,0.049545899807215014,75.0
193,0.772,0.0683583192567957,0.07219392208258753,75.0
194,0.776,0.06495403673928704,0.05502910127515804,75.0
195,0.78,0.04778285013263673,0.08909747304644197,75.0
196,0.784,0.04930360404575209,0.01880194038606625,75.0
197,0.788,0.032192782357198975,0.10350114605309899,75.0
198,0.792,0.03302455194827448,0.051388005479763896,75.0
199,0.796,0.04465009819971535,0.04445848837133072,75.0
200,0.8,0.050621396904625866,0.06237604914291278,75.0
201,0.804,0.04507244546494287,0.060253487882907616,75.0
202,0.808,0.09241152855437586,0.04006155666977352,75.0
203,0.812,0.0909480125694938,0.10491471117315984,75.0
204,0.816,0.09072569393458574,0.05029447755064044,75.0
205,0.82,0.08202026281744221,0.057297181859503464,75.0
206,0.824,0.07256572171488651,0.08862526862049577,75.0
207,0.828,0.10856555985068443,0.08944177989960991,75.0
208,0.832,0.12344501521062018,0.06328212062055388,75.0
209,0.836,0.1318750587066082,0.07473630205059735,75.0
210,0.84,0.12791846493200346,0.1380714566055239,75.0
211,0.844,0.1216074290410547,0.0875887244801097,75.0
212,0.848,0.13392646507201897,0.12167727794738883,75.0
213,0.852,0.1542017938586443,0.12897000136566078,75.0
214,0.856,0.13179685102400396,0.1475427227524672,75.0
215,0.86,0.13539460879430135,0.11063607932064544,75.0
216,0.864,0.12226008009441433,0.12237512506681077,75.0
217,0.868,0.11727517778826413,0.09932678223270827,75.0
218,0.872,0.1281925570873392,0.11912928243735534,75.0
219,0.876,0.11516225200220626,0.1238500447003425,75.0
220,0.88,0.09802636815188881,0.11089085113189615,75.0
221,0.884,0.1116499393020033,0.10175741020428274,75.0
222,0.888,0.10063858503811804,0.10421542892392852,75.0
223,0.892,0.10798890483797509,0.0733996201420789,75.0
224,0.896,0.0967101521749756,0.08071669929243576,75.0
225,0.9,0.07862260393766038,0.043583827141004845,75.0
226,0.904,0.025141917287583568,0.04593763808313386,75.0
227,0.908,0.050259940872269926,0.03821819830422962,75.0
228,0.912,0.04168177459131075,0.07077486736101209,75.0
229,0.916,0.0277121441632403,0.0551574713238167,75.0
230,0.92,-0.03192202194318041,-0.03420619050094872,75.0
231,0.924,-0.1626566790876747,-0.0927239986028311,75.0
232,0.928,-0.14889047627912988,-0.15243737562793067,75.0
233,0.932,-0.12377023194743465,-0.1414070631295909,75.0
234,0.936,0.3490874275444144,0.3394315070932149,75.0
235,0.94,0.771377975540571,0.69331718289505,75.0
236,0.944,0.9343941338081463,0.9377444268641916,75.0
237,0.948,0.7281525752124581,0.64981078045318,75.0
238,0.952,0.35558000649266813,0.37373574592010506,75.0
239,0.956,0.09201542676885599,0.09764354542749606,75.0
240,0.96,-0.015158707951166221,0.0030317323315912324,75.0
241,0.964,-0.046859812050903935,-0.037993593996622034,75.0
242,0.968,-0.0661978239971817,-0.10512276655580405,75.0
243,0.972,-0.1936522506415586,-0.20797531586407877,75.0
244,0.976,-0.2915321819671985,-0.2614745487710641,75.0
245,0.98,-0.19860108259950857,-0.18170368297623474,75.0
246,0.984,-0.10017146478792444,-0.08563806761214085,75.0
247,0.988,-0.01772891349654743,-0.038085124895004374,75.0
248,0.992,-0.006444316452079207,-0.03219977078821519,75.0
249,0.996,-0.01205411285761102,0.030627903329231782,75.0
250,1.0,-0.00035351590352459866,0.023665904102143774,75.0
251,1.004,0.006393656367299771,-0.03635258344892703,75.0
252,1.008,0.03194593311490668,-0.0051164592636616865,75.0
253,1.012,-0.007571553629223109,0.005251706612823888,75.0
254,1.016,0.026880825596309083,0.038431990498131424,75.0
255,1.02,-0.0021002323174098185,0.02562746275892367,75.0
256,1.024,0.0023807703168990803,0.023906588716643962,75.0
257,1.028,0.02350445230000611,0.07549500284023922,75.0
258,1.032,0.026812567006915117,0.0604097452996986,75.0
259,1.036,0.0580246061816836,0.08889341262965732,75.0
260,1.04,0.07986109205477857,0.05087053166067766,75.0
261,1.044,0.11147697840604769,0.08575266741639588,75.0
262,1.048,0.10420654859975471,0.14336488254891985,75.0
263,1.052,0.09036062428540056,0.10151051861716566,75.0
264,1.056,0.1256200635221488,0.14674903859296656,75.0
265,1.06,0.12613351557907,0.1551324992627151,75.0
266,1.064,0.15595393243906852,0.10385153135846892,75.0
267,1.068,0.11741741646819469,0.14463548278570784,75.0
268,1.072,0.16719485627009853,0.18149218378684334,75.0
269,1.076,0.19713124993020922,0.17340867946859123,75.0
270,1.08,0.22242846668084762,0.2152244808071394,75.0
271,1.084,0.19682187667833848,0.15639766483889586,75.0
272,1.088,0.22867852378734257,0.20689485930153503,75.0
273,1.092,0.2214006454216165,0.21110624763204563,75.0
274,1.096,0.22626969579352363,0.2136407793512868,75.0
275,1.1,0.23292096022324407,0.24873134073530379,75.0
276,1.104,0.24449468713278183,0.22621149534154184,75.0
277,1.108,0.23622263131252128,0.22565516705312402,75.0
278,1.112,0.24822591376526593,0.26184380880561925,75.0
279,1.116,0.21968210562192866,0.2475396727060201,75.0
280,1.12,0.23026689406428022,0.2426112296685533,75.0
281,1.124,0.260574978953846,0.2337057799265411,75.0
282,1.128,0.2490845531465065,0.22783726467077575,75.0
283,1.132,0.20915579379840907,0.21872737475860735,75.0
284,1.136,0.19921279590006155,0.22704750688790767,75.0
285,1.14,0.22227706458059499,0.20623797263897656,75.0
286,1.144,0.20063937984602315,0.2075131949890813,75.0
287,1.148,0.2139563057033044,0.15870423825519803,75.0
288,1.152,0.20883902305781518,0.17055068773031168,75.0
289,1.156,0.1450149608174627,0.14117541860310814,75.0
290,1.16,0.19014524358670282,0.17992361580592292,75.0
291,1.164,0.15502138599664095,0.17723390453025667,75.0
292,1.168,0.12589305994873556,0.11657550715589221,75.0
293,1.172,0.13682721290575284,0.12448420322706825,75.0
294,1.176,0.12540593207750592,0.06181320494517181,75.0
295,1.18,0.103071320412627,0.08948122673545712,75.0
296,1.184,0.10382128706870794,0.06708862637369574,75.0
297,1.188,0.09009001408005714,0.09053268927408825,75.0
298,1.192,0.055156332942301003,0.0714571445039914,75.0
299,1.196,0.00675815452161548,0.03204106253026346,75.0
300,1.2,0.0307402093032276,0.0653817173155697,75.0
301,1.204,0.02014340303471894,0.018664439523914785,75.0
302,1.208,0.014622794215527112,0.05724747658996221,75.0
303,1.212,0.004296012419217185,0.016165398914608567,75.0
304,1.216,-0.0255538462335993,-0.016844629999589304,75.0
305,1.22,-0.012665971001700837,-0.026496488272062878,75.0
306,1.224,-0.034357635955579294,-0.0032780061368382486,75.0
307,1.228,-0.04161370126686233,-0.03561969764356688,75.0
308,1.232,-0.06193995276279898,-0.05134429544037511,75.0
309,1.236,-0.03249257249072869,-0.03957626266004527,75.0
310,1.24,-0.05808700090340109,-0.09166691023899834,75.0
311,1.244,-0.0694767685950247,-0.05928940474406231,75.0
312,1.248,-0.07889744487815234,-0.03697211445276647,75.0
313,1.252,-0.10915534889718954,-0.06289877475564608,75.0
314,1.256,-0.0823159399529452,-0.02823287167975649,75.0
315,1.26,-0.065844838807593,-0.0953825727278797,75.0
316,1.264,-0.04560254882985113,-0.05693521553216042,75.0
317,1.268,-0.09369561787088118,-0.13158496934525057,75.0
318,1.272,-0.04773667949993654,-0.04693621121240496,75.0
319,1.276,-0.06793618425699802,-0.05089810886646343,75.0
320,1.28,-0.06590491106071869,-0.08904703677112841,75.0
321,1.284,-0.07302471673559241,-0.09928025210943842,75.0
322,1.288,-0.06842534761664384,-0.09118932458792647,75.0
323,1.292,-0.09254248496365818,-0.08703769064666517,75.0
324,1.296,-0.07274727226298001,-0.0471823553666652,75.0
325,1.3,-0.09231978433989706,-0.07455046119670644,75.0
326,1.304,-0.05033433718888521,-0.07832746641203503,75.0
327,1.308,-0.07529907118004053,-0.09475714501638946,75.0
328,1.312,-0.08344628799632503,-0.08083847474038183,75.0
329,1.316,-0.05591308347744898,-0.03903183667104098,75.0
330,1.32,-0.09612927235126487,-0.08824534324034156,75.0
331,1.324,-0.09121476652422479,-0.057061423986198484,75.0
332,1.328,-0.07818877148619831,-0.09301230545144157,75.0
333,1.332,-0.10133807238809164,-0.08290634118813958,75.0
334,1.336,-0.09756050639877163,-0.0577151829457102,75.0
335,1.34,-0.09571069661269574,-0.11793045606464488,75.0
336,1.344,-0.06003100104938894,-0.0581045527667118,75.0
337,1.348,-0.08739544497598814,-0.08978102297153773,75.0
338,1.352,-0.11550295561763223,-0.06207012717124034,75.0
339,1.356,-0.09773631327174274,-0.0806612846578819,75.0
340,1.36,-0.07832782604176909,-0.11066404022237401,75.0
341,1.364,-0.10658634894311152,-0.05648717711063977,75.0
342,1.368,-0.06880824174129534,-0.0789185736543956,75.0
343,1.372,-0.0891356533096674,-0.08777631391782126,75.0
344,1.376,-0.0960624710000933,-0.05040943456537294,75.0
345,1.38,-0.054299087443930937,-0.06756358997565284,75.0
346,1.384,-0.10311776207514085,-0.10943877652354315,75.0
347,1.388,-0.09376670443537563,-0.10155746547233328,75.0
348,1.392,-0.06847592512674305,-0.14546019655597747,75.0
349,1.396,-0.08632247263461273,-0.08402300226900405,75.0
350,1.4,-0.0719619068208886,-0.08694602264003597,75.0
351,1.404,-0.09961935487915062,-0.05699749769477214,75.0
352,1.408,-0.08446739646331444,-0.06358903601103835,75.0
353,1.412,-0.07275559102085728,-0.09264507842749925,75.0
354,1.416,-0.06721239977091634,-0.08770323751294853,75.0
355,1.42,-0.08705497031072537,-0.06605518712812126,75.0
356,1.424,-0.09191629403320818,-0.06776044774938517,75.0
357,1.428,-0.051190582275070715,-0.06403540993807275,75.0
358,1.432,-0.07228142277556093,-0.07944540170767919,75.0
359,1.436,-0.08197597320836637,-0.09068885371211816,75.0
360,1.44,-0.057863863630144646,-0.08626867857559024,75.0
361,1.444,-0.0643728948725779,-0.07406352281042901,75.0
362,1.448,-0.0758301003708196,-0.10472009856130399,75.0
363,1.452,-0.1042019415406878,-0.04179318715298559,75.0
364,1.456,-0.10482251652397774,-0.09589349914185076,75.0
365,1.46,-0.06130324054149662,-0.08072152268954319,75.0
366,1.464,-0.09678527509160177,-0.11857062181820681,75.0
367,1.468,-0.07958213271401243,-0.07071198058015928,75.0
368,1.472,-0.11985910376350054,-0.07572130797920953,75.0
369,1.476,-0.12099728555886251,-0.03285809712382412,75.0
370,1.48,-0.10991674838489386,-0.0935110202384442,75.0
371,1.484,-0.04700714275825577,-0.06359985396336801,75.0
372,1.488,-0.08371375395904333,-0.11284335952534512,75.0
373,1.492,-0.11524730606150582,-0.06245041360885555,75.0
374,1.496,-0.09649878227784961,-0.09477664492583925,75.0
375,1.5,-0.05869608004367879,-0.07677418316326108,75.0
376,1.504,-0.09385092282115816,-0.10374919399129078,75.0
377,1.508,-0.08453224701347878,-0.09842698657105436,75.0
378,1.512,-0.07496363781235364,-0.10672009880251576,75.0
379,1.516,-0.12142866211381137,-0.06367866935588065,75.0
380,1.52,-0.10629852954991242,-0.09369671657507558,75.0
381,1.524,-0.11200065967247134,-0.07099645654400813,75.0
382,1.528,-0.07803769949809186,-0.1031554205626701,75.0
383,1.532,-0.07853717534214052,-0.06320358869194803,75.0
384,1.536,-0.08103383461411306,-0.07046323536994374,75.0
385,1.54,-0.0986233962592483,-0.06295808239353295,75.0
386,1.544,-0.09734833181656123,-0.09551995922556722,75.0
387,1.548,-0.09942057962834334,-0.09109647624314182,75.0
388,1.552,-0.10822846271501946,-0.07625622476786656,75.0
389,1.556,-0.0905299250022454,-0.0900271151135105,75.0
390,1.56,-0.07875468553172167,-0.08392011297722014,75.0
391,1.564,-0.08323365173372547,-0.10963352362452175,75.0
392,1.568,-0.11511312590910519,-0.09475062087931381,75.0
393,1.572,-0.1029875249634622,-0.07174729696141928,75.0
394,1.576,-0.06781586276081343,-0.05734610472490555,75.0
395,1.58,-0.11048051494348692,-0.13377903661442006,75.0
396,1.584,-0.0821648137328377,-0.0976665444654944,75.0
397,1.588,-0.10206995583514955,-0.06373761277987956,75.0
398,1.592,-0.08356372352247807,-0.11034514206986358,75.0
399,1.596,-0.06606050765011631,-0.11932169082768113,75.0
400,1.6,-0.09742423942000213,-0.10696033748491689,75.0
401,1.604,-0.0332810233318141,-0.09549835855301834,75.0
402,1.608,-0.06678916961498348,-0.03229991816226149,75.0
403,1.612,-0.08379892070543105,-0.04914367190211059,75.0
404,1.616,-0.04367388521197403,-0.057650266891293135,75.0
405,1.62,-0.028062358566218686,-0.03400222296148999,75.0
406,1.624,-0.03604055318304013,-0.009791548128852029,75.0
407,1.628,-0.026843694620859376,-0.05133249338967636,75.0
408,1.632,-0.005502350006260442,-0.003003976844900591,75.0
409,1.636,-0.01624060368221138,0.028675294321849808,75.0
410,1.64,-0.00721913168730277,-8.989797791116617e-05,75.0
411,1.644,0.013804492390996972,0.04745697830904329,75.0
412,1.648,0.004414130027219889,-0.01688022239259804,75.0
413,1.652,-0.000887075395220078,-0.001807309218593704,75.0
414,1.656,0.002106350586590777,0.025925537608561016,75.0
415,1.66,0.005056400761434776,0.020685968672985246,75.0
416,1.664,-0.0027959653303448228,0.010830278341044967,75.0
417,1.668,0.02473451825230191,0.011093262537456303,75.0
418,1.672,-0.025726315343980125,0.0018887023216563174,75.0
419,1.676,-0.007855447551784021,0.011871229343950096,75.0
420,1.68,-0.04346021306282747,-0.03025013669016766,75.0
421,1.684,0.002350272246874993,-0.016508725773741247,75.0
422,1.688,-0.019625540716410178,-0.02788790197559246,75.0
423,1.692,-0.003966532928335275,0.010761139274741108,75.0
424,1.696,0.01470455015205165,-0.02672049661130026,75.0
425,1.7,-0.05170970546996062,-0.03350614522012429,75.0
426,1.704,-0.05052458181794634,-0.09183762791700795,75.0
427,1.708,-0.019118175961923615,-0.032563143461229876,75.0
428,1.712,-0.05196817821291366,-0.02451481474969885,75.0
429,1.716,-0.058562462612305514,-0.08651823263120066,75.0
430,1.72,-0.07238548221589323,-0.06253757458053939,75.0
431,1.724,-0.20801521703998055,-0.22593814514879387,75.0
432,1.728,-0.25349291992911055,-0.2361280737423894,75.0
433,1.732,-0.18684237493566308,-0.2235007809181493,75.0
434,1.736,-0.13497201340332873,-0.13379809365905873,75.0
435,1.74,0.5990212550383403,0.6243170091338046,75.0
436,1.744,0.8519490287179127,0.8082550250516425,75.0
437,1.748,0.6476201792294095,0.6275519236505328,75.0
438,1.752,0.2938471600746689,0.2309114793700513,75.0
439,1.756,0.024404255773444163,0.049509526674995176,75.0
440,1.76,-0.021388023238518492,-0.06582411860100362,75.0
441,1.764,-0.08868945400089596,-0.08833639549864863,75.0
442,1.768,-0.15275562617987187,-0.1889186129952558,75.0
443,1.772,-0.25864317081636734,-0.2253561876077042,75.0
444,1.776,-0.3220475199471734,-0.31904020246903064,75.0
445,1.78,-0.25327200150402646,-0.2911550220383638,75.0
446,1.784,-0.1442081037299954,-0.13911114342717662,75.0
447,1.788,-0.0862200512624182,-0.08578692311626143,75.0
448,1.792,-0.07583723106363494,-0.05663625611699077,75.0
449,1.796,-0.06198908927677348,-0.04338206941725114,75.0
450,1.8,-0.023200047975947522,-0.012414417599310086,75.0
451,1.804,-0.059767419865692284,-0.06006849968315513,75.0
452,1.808,-0.04705965397242912,-0.009546880692485521,75.0
453,1.812,-0.03896188544562864,-0.007384566703752977,75.0
454,1.816,-0.02441429021551121,0.03263731107767961,75.0
455,1.82,0.005676524905978207,-0.026164318592456524,75.0
456,1.824,0.0027249624003305647,-0.02674662732055572,75.0
457,1.828,0.022954088155695225,0.013384029629421786,75.0
458,1.832,0.02440265315274892,0.0420814971520028,75.0
459,1.836,0.03858026520896941,-0.019576136122166455,75.0
460,1.84,0.05360491893829686,0.05983118326851477,75.0
461,1.844,0.040257147627251195,0.057183582628822616,75.0
462,1.848,0.050642689956592525,0.07415553633601492,75.0
463,1.852,0.11800153144176337,0.022066597866626514,75.0
464,1.856,0.09617723919225074,0.07694900824534871,75.0
465,1.86,0.11156509064231125,0.09476021707581049,75.0
466,1.864,0.13474138376976555,0.12703811624627373,75.0
467,1.868,0.14177581757087643,0.1614273690093357,75.0
468,1.872,0.13593518220254416,0.18932978130234532,75.0
469,1.876,0.17978007882601468,0.1827600442240104,75.0
470,1.88,0.1905208957165663,0.1676072807020243,75.0
471,1.884,0.16472449526333047,0.18241725490762054,75.0
472,1.888,0.17500962395877848,0.17518163663828082,75.0
473,1.892,0.18520322010538506,0.2124936484621595,75.0
474,1.896,0.2137408726662573,0.1971143757664264,75.0
475,1.9,0.21539020849797597,0.18981515571093904,75.0
476,1.904,0.23152758129824663,0.23327388128356222,75.0
477,1.908,0.2405140254922996,0.26690170324375967,75.0
478,1.912,0.25257885793697304,0.24878216209454526,75.0
479,1.916,0.25308218546153965,0.26189485883924857,75.0
480,1.92,0.25462817207725297,0.22088992217119371,75.0
481,1.924,0.27095723417772727,0.25140737684432146,75.0
482,1.928,0.25972331928473513,0.26950001716205846,75.0
483,1.932,0.224648631420608,0.26670716434478553,75.0
484,1.936,0.24358343953738898,0.23048745853046645,75.0
485,1.94,0.25692013501931843,0.24242286423912374,75.0
486,1.944,0.24777217760080053,0.2315564679308715,75.0
487,1.948,0.2266024194813183,0.22261071309789238,75.0
488,1.952,0.20289559379920524,0.19041704466613962,75.0
489,1.956,0.2059188186751434,0.2025811386059204,75.0
490,1.96,0.21058454807670665,0.23872759396386328,75.0
491,1.964,0.21895973444322114,0.23375282806863268,75.0
492,1.968,0.18578997836273492,0.13260760994303616,75.0
493,1.972,0.1854068378199248,0.15047120690406296,75.0
494,1.976,0.15265990337039773,0.12374592209960024,75.0
495,1.98,0.1827283040205186,0.1932191789685924,75.0
496,1.984,0.15589764888191576,0.10885602585737462,75.0
497,1.988,0.15212560685711277,0.12131068211000841,75.0
498,1.992,0.12109638574705091,0.09066559073074232,75.0
499,1.996,0.09770202763281495,0.12582832928156967,75.0
500,2.0,0.0924137106990565,0.0659612323509923,75.0
501,2.004,0.07335697629331231,0.05390402986060713,75.0
502,2.008,0.09347348271066866,0.07534739153636648,75.0
503,2.012,0.06069293374102354,0.05111219468847823,75.0
504,2.016,0.06669896727276195,0.0909336175086557,75.0
505,2.02,0.04800669775687956,0.06933438377433884,75.0
506,2.024,0.046699473258273,0.012603421038233862,75.0
507,2.028,0.056076060044550666,0.021715400610392618,75.0
508,2.032,0.0194007052730286,-0.03422231122067141,75.0
509,2.036,-0.00044363989012465325,0.02006366539241434,75.0
510,2.04,0.021331169607634187,-0.0026829781669627864,75.0
511,2.044,-0.02695132708950883,0.04223991456624768,75.0
512,2.048,0.010052218461050984,0.03097962825040802,75.0
513,2.052,0.0018572285818496705,-0.007888003409824764,75.0
514,2.056,0.03173851071158817,0.002317066754585947,75.0
515,2.06,-6.0670039177738636e-05,0.05227485172399299,75.0
516,2.064,0.012637394789639206,0.011276901866921207,75.0
517,2.068,0.03508026441645868,0.03550676630607144,75.0
518,2.072,0.03408317272634202,0.028688041998578138,75.0
519,2.076,0.011860174936755206,0.02637672338071348,75.0
520,2.08,0.018282876688395632,0.04215092717714994,75.0
521,2.084,0.03592693939247701,0.010855942032942757,75.0
522,2.088,0.04066296471221565,0.028640773166574856,75.0
523,2.092,0.05883016974805721,0.028912760762959185,75.0
524,2.096,0.029771806299215886,0.04067063187269982,75.0
525,2.1,-0.0002388391056013452,0.023216825771180984,75.0
526,2.104,0.06483950721883602,0.03797389368783487,75.0
527,2.108,0.011851414484479938,0.042148214047391115,75.0
528,2.112,0.045448400950565404,0.001416026588292426,75.0
529,2.116,0.05119238814465584,0.023500332839061677,75.0
530,2.12,0.006443573674009816,0.026278523228385087,75.0
531,2.124,0.04201966786460018,0.012542143336918056,75.0
532,2.128,0.04903676731435353,0.01942828851253643,75.0
533,2.132,-0.0069399402554362255,0.033067012486873854,75.0
534,2.136,0.04865438720206431,0.02045969813623669,75.0
535,2.14,0.042321766997000194,0.01579908298064517,75.0
536,2.144,0.05114154972346166,0.02935762714463969,75.0
537,2.148,0.016347858056192665,0.04633030755746854,75.0
538,2.152,0.07754935737882002,0.044628912796819915,75.0
539,2.156,0.03296144252601839,0.038204201857275875,75.0
540,2.16,0.04316979814027047,0.09450619876969077,75.0
541,2.164,0.04778483130917095,0.054134565028903806,75.0
542,2.168,0.020681271353098687,0.05188087701953982,75.0
543,2.172,0.049878353943396306,0.056305889356880634,75.0
544,2.176,0.033799950742809774,0.0251769352450679,75.0
545,2.18,0.024641495722460185,0.015738439201920952,75.0
546,2.184,0.05286114681654923,0.06051991153105213,75.0
547,2.188,0.04414261210482832,0.06607393039868144,75.0
548,2.192,0.05829950797225255,0.044352725896736375,75.0
549,2.196,0.06559342460581243,0.05505698805475144,75.0
550,2.2,0.06665228170938234,0.020438132608307524,75.0
551,2.204,0.03834768677758666,0.03492122079788899,75.0
552,2.208,0.05697966117433964,0.03456270490996584,75.0
553,2.212,0.05242652434244518,0.026126002028039427,75.0
554,2.216,0.07803575501356091,0.0015492130750044968,75.0
555,2.22,0.04943284193173102,0.02820611480218091,75.0
556,2.224,0.07988099553917609,0.0483723491227383,75.0
557,2.228,0.058040838359628796,0.06141520247792838,75.0
558,2.232,0.02905112152341096,0.07572102465719266,75.0
559,2.236,0.08089294703956118,0.07681922491059025,75.0
560,2.24,0.05410989291170557,0.081039770933051,75.0
561,2.244,0.0538216497893414,0.1115917749943823,75.0
562,2.248,0.0713951283099944,0.03693592716422166,75.0
563,2.252,0.06639070967505432,0.061189490984867055,75.0
564,2.256,0.04749521445119454,0.046773337564238064,75.0
565,2.26,0.06041370010137603,0.0793528588271218,75.0
566,2.264,0.06926659520985272,0.06597893203652896,75.0
567,2.268,0.07480006883189662,0.09698356007828601,75.0
568,2.272,0.0948105831123957,0.07333233908351784,75.0
569,2.276,0.0973641136368976,0.07832818114580672,75.0
570,2.28,0.05698265956301237,0.03004563749925215,75.0
571,2.284,0.06114485048369619,0.05185491006883402,75.0
572,2.288,0.07950110365404991,0.08652794122563504,75.0
573,2.292,0.07287970905824666,0.05234630646550846,75.0
574,2.296,0.07102518324084653,0.0891254856648581,75.0
575,2.3,0.044497253455904315,0.06670742204935352,75.0
576,2.304,0.10686400885732585,0.07011628829985132,75.0
577,2.308,0.054757412625903425,0.10393386477193113,75.0
578,2.312,0.08811588505460596,0.08567949274264683,75.0
579,2.316,0.0753077559148607,0.07922319695434349,75.0
580,2.32,0.07176437136572283,0.052547306289335516,75.0
581,2.324,0.07474764274952106,0.0856500568744967,75.0
582,2.328,0.0872264440685275,0.088542920690312,75.0
583,2.332,0.06689024273097398,0.0796234937766413,75.0
584,2.336,0.10729222797883067,0.040320542002884645,75.0
585,2.34,0.07614244097492913,0.05089578258669,75.0
586,2.344,0.09042918496807935,0.06799609529375442,75.0
587,2.348,0.09470714981178568,0.07270936991669817,75.0
588,2.352,0.06881338103235703,0.08265758530208442,75.0
589,2.356,0.0720394293737527,0.06717631528471726,75.0
590,2.36,0.08832774411690106,0.12159432817773998,75.0
591,2.364,0.07722863751105345,0.08859926210811216,75.0
592,2.368,0.10104098955707652,0.09087317473432902,75.0
593,2.372,0.1106029150630433,0.06354353787196593,75.0
594,2.376,0.09093701966641125,0.07189450786006941,75.0
595,2.38,0.07375575014539998,0.037464950241143685,75.0
596,2.384,0.07010379866485317,0.07611157448315553,75.0
597,2.388,0.10284966554817014,0.07829500487633861,75.0
598,2.392,0.08311760532238323,0.09374402330977318,75.0
599,2.396,0.10251320222993214,0.04607473521226415,75.0
600,2.4,0.09112237282348153,0.050756616813129984,75.0
601,2.404,0.09177920741922317,0.10339088891745639,75.0
602,2.408,0.07996241606830068,0.09737395914690909,75.0
603,2.412,0.11108738886406161,0.15370570633066896,75.0
604,2.416,0.10491156399552033,0.093856177326411,75.0
605,2.42,0.11215434974275129,0.15200331164488504,75.0
606,2.424,0.1253608189967638,0.14102919895068694,75.0
607,2.428,0.1366433119032359,0.11642291284020195,75.0
608,2.432,0.14472881795332274,0.15063072527677637,75.0
609,2.436,0.16362884771578393,0.13591979531096773,75.0
610,2.44,0.19185419407631374,0.2027905306423707,75.0
611,2.444,0.1717167245980398,0.1662614787245391,75.0
612,2.448,0.17316302169910766,0.14965777014285955,75.0
613,2.452,0.22963023628332851,0.20127183482598823,75.0
614,2.456,0.16278735460925978,0.1906696188718922,75.0
615,2.46,0.21758551962786052,0.18907214756800317,75.0
616,2.464,0.17967300470092876,0.17306677643582055,75.0
617,2.468,0.16166869171311715,0.15709769703742762,75.0
618,2.472,0.18730319887465535,0.19192068282447292,75.0
619,2.476,0.19679671752150804,0.17568006475339384,75.0
620,2.48,0.19533145614230435,0.1943967416067107,75.0
621,2.484,0.13597009897201046,0.12317870646789936,75.0
622,2.488,0.19118020645534067,0.17745169044807824,75.0
623,2.492,0.17119184700754733,0.18199138816106028,75.0
624,2.496,0.16155024424258047,0.15234034374983582,75.0
625,2.5,0.13936098974360478,0.11115091629228148,75.0
626,2.504,0.12261762220138028,0.1312636861917298,75.0
627,2.508,0.09785068742562669,0.16087076507895193,75.0
628,2.512,0.07608555501913535,0.11103525634732656,75.0
629,2.516,0.10181657233143052,0.05644054840814583,75.0
630,2.52,0.060887921365966255,0.08190148507085991,75.0
631,2.524,-0.05919176187832085,-0.05605223854035182,75.0
632,2.528,-0.10304080214350674,-0.07660054855245424,75.0
633,2.532,-0.05281404051732655,-0.08640984034065592,75.0
634,2.536,0.04439379041383845,-0.0027874413495213323,75.0
635,2.54,0.8334159535328417,0.7799884588589587,75.0
636,2.544,1.0,1.0,75.0
637,2.548,0.8413422551130672,0.7692180334032321,75.0
638,2.552,0.42481137805832186,0.42294209765867696,75.0
639,2.556,0.16172438204307887,0.17216918167864073,75.0
640,2.56,0.10136754914681319,0.07747727270705393,75.0
641,2.564,0.07443028583836864,0.008459844808531139,75.0
642,2.568,-0.0030025017617942443,0.022338642320077085,75.0
643,2.572,-0.10136771493476908,-0.13158122809554124,75.0
644,2.576,-0.17599192695782,-0.1909094238255685,75.0
645,2.58,-0.11186933820903495,-0.08651070278798771,75.0
646,2.584,-0.016361416278566583,-0.01398946892780863,75.0
647,2.588,0.04488507820713624,0.06348352610980883,75.0
648,2.592,0.09543530223662612,0.06478490291629384,75.0
649,2.596,0.10788229030265414,0.12349327801297967,75.0
650,2.6,0.0866345759309115,0.09800593999580601,75.0
651,2.604,0.05810011365103701,0.14434320976462636,75.0
652,2.608,0.09215553716569093,0.07830045595225092,75.0
653,2.612,0.12019641803743052,0.12889629902736902,75.0
654,2.616,0.1120850728432972,0.10378055345274505,75.0
655,2.62,0.08856981686892712,0.12476440501520059,75.0
656,2.624,0.14517233188498638,0.1674200531777769,75.0
657,2.628,0.1323481083114196,0.12918317367337895,75.0
658,2.632,0.1549806911041723,0.12796172570879652,75.0
659,2.636,0.18361132323339735,0.14481254211730643,75.0
660,2.64,0.16096484862402713,0.2007847280928879,75.0
661,2.644,0.1876123244346943,0.17836640854035732,75.0
662,2.648,0.19601791326068949,0.18439709570067034,75.0
663,2.652,0.20431422456292678,0.1782810606435008,75.0
664,2.656,0.2056376821685917,0.1821793383800248,75.0
665,2.66,0.23864736404103895,0.21208677956163202,75.0
666,2.664,0.2266988438692986,0.2085163088598799,75.0
667,2.668,0.2589067941142124,0.22391878535289853,75.0
668,2.672,0.273602824401386,0.2493277723820442,75.0
669,2.676,0.2790511805474923,0.2717949521228531,75.0
670,2.68,0.2640307406355661,0.2647196364976917,75.0
671,2.684,0.28250742453456734,0.2920476691146071,75.0
672,2.688,0.26833045116128657,0.2904220141910232,75.0
673,2.692,0.33663308885007204,0.3032167991643602,75.0
674,2.696,0.32203898033568135,0.32284294243884376,75.0
675,2.7,0.31552152961701396,0.3319046963781653,75.0
676,2.704,0.31443727125288323,0.32943234784971187,75.0
677,2.708,0.32950443410881497,0.35334764436745975,75.0
678,2.712,0.3527336119526079,0.3578101932045277,75.0
679,2.716,0.3869522477328666,0.3508928343246898,75.0
680,2.72,0.3465371165328231,0.3296011850906352,75.0
681,2.724,0.31819848989043714,0.34344162032960984,75.0
682,2.728,0.3458833432440245,0.34760038390908377,75.0
683,2.732,0.32717034805135914,0.37353311397899075,75.0
684,2.736,0.36237019756066735,0.3472064259854048,75.0
685,2.74,0.32854845080564893,0.31590803429498393,75.0
686,2.744,0.32260323555896253,0.3503759805638036,75.0
687,2.748,0.2994851134003851,0.3148554151529035,75.0
688,2.752,0.3099421892839382,0.27242649274715397,75.0
689,2.756,0.28995130223787724,0.2732881037363047,75.0
690,2.76,0.2786754388870035,0.2628805011622731,75.0
691,2.764,0.27881799007953384,0.2596020585672827,75.0
692,2.768,0.23940988386463896,0.19505962041448474,75.0
693,2.772,0.24238204673852895,0.2606514241110571,75.0
694,2.776,0.21477267479834497,0.2141147447088702,75.0
695,2.78,0.19967840334195663,0.1975659439919843,75.0
696,2.784,0.19107485881918237,0.1782807613153503,75.0
697,2.788,0.1901740171425307,0.18758060279727296,75.0
698,2.792,0.1201967963475999,0.16414108715871426,75.0
699,2.796,0.14185560652876075,0.12145153838802578,75.0
700,2.8,0.11967532177675723,0.18473677200154026,75.0
701,2.804,0.11638207320266715,0.13201492472088652,75.0
702,2.808,0.11063175317491912,0.12342533346556987,75.0
703,2.812,0.1524428843546942,0.07784454387915621,75.0
704,2.816,0.11013919548343783,0.05887067162221789,75.0
705,2.82,0.09832477880933292,0.0863760458724365,75.0
706,2.824,0.09146312000585746,0.03565397461041747,75.0
707,2.828,0.07007912145280422,0.04572832024932709,75.0
708,2.832,0.05362277240166286,0.05870228075586397,75.0
709,2.836,0.03974800061294584,0.006426857294999147,75.0
710,2.84,-0.003122829608124225,0.024309686453466036,75.0
711,2.844,0.05405064418206,0.02973736612497607,75.0
712,2.848,0.049413752919957095,0.02264433800403155,75.0
713,2.852,0.018410030303523763,0.04014861718438556,75.0
714,2.856,0.03228001084856166,0.02911088453533118,75.0
715,2.86,0.04378501335798701,0.07934269103794041,75.0
716,2.864,0.017797411704603187,0.03588089952300075,75.0
717,2.868,0.03512446190727817,0.01453259033585249,75.0
718,2.872,0.02430356885194341,0.026357658356068007,75.0
719,2.876,0.06302729812081728,0.01168726281195486,75.0
720,2.88,-0.011552647779622284,-0.009879401817190988,75.0
721,2.884,0.0040299216426915585,-0.017391146007785,75.0
722,2.888,0.02807457530665613,0.04546944529590928,75.0
723,2.892,0.028267962393286834,0.045777091580562576,75.0
724,2.896,0.03370506350194784,0.008504061005570695,75.0
725,2.9,0.05743258241643147,0.05569022528168378,75.0
726,2.904,0.03262901538510164,0.04011975811628395,75.0
727,2.908,0.020541581918464395,0.011405255320332553,75.0
728,2.912,0.010106084827661965,0.05444253597199308,75.0
729,2.916,0.009133411554930394,0.0209830452043244,75.0
730,2.92,0.0249730630534938,0.011136173659361585,75.0
731,2.924,0.028789213202226733,0.023736773815059842,75.0
732,2.928,-0.0001471907054011829,0.026195454310624908,75.0
733,2.932,-0.025497321174636076,-0.013034328169215882,75.0
734,2.936,0.011797001122175086,0.015227837498900705,75.0
735,2.94,0.017923808167421063,0.07344373583340245,75.0
736,2.944,0.002143298140030406,0.012252658374355636,75.0
737,2.948,0.0048032649034610445,-0.019764433973670933,75.0
738,2.952,0.012937444523286993,0.04616537519109682,75.0
739,2.956,0.017645217578116018,0.0057307092767862906,75.0
740,2.96,0.028743388155017396,0.024539585411619335,75.0
741,2.964,0.007652414078248815,0.011409102242938575,75.0
742,2.968,0.03213076341840516,-0.004607927728590561,75.0
743,2.972,-1.1256773628883132e-05,0.017214750473814412,75.0
744,2.976,0.005964092255400512,-0.02986220035330455,75.0
745,2.98,0.0058503108915007864,-0.02543023869391729,75.0
746,2.984,-0.011557702501448372,0.021045973525684016,75.0
747,2.988,0.033525748247627864,0.047269616885831305,75.0
748,2.992,0.021123845214523044,0.025948261598732106,75.0
749,2.996,0.014282700284733805,-0.016962512572563707,75.0
750,3.0,0.004115887935646102,-0.01088914515994116,75.0
751,3.004,-0.009025848257609258,-0.014310055760446175,75.0
752,3.008,-0.017714539723029762,-0.0038497292503196973,75.0
753,3.012,-0.005853561851626949,0.019046714681157297,75.0
754,3.016,-0.0264796958663975,0.0036362036136172336,75.0
755,3.02,0.01455182549968505,0.004158261110628245,75.0
756,3.024,-0.008166247580120398,0.020032618036471956,75.0
757,3.028,-0.014212611633195668,0.022755472023894233,75.0
758,3.032,-0.00177302476113668,0.03261113753277891,75.0
759,3.036,-0.001971700813219304,0.007372820622576009,75.0
760,3.04,-0.014195172357276669,-0.0061875707314453954,75.0
761,3.044,-0.023170097060324604,-0.03241009550480772,75.0
762,3.048,0.011210698944138026,0.015880673588864493,75.0
763,3.052,-0.020749930739026156,-0.0330716005334781,75.0
764,3.056,-0.025304642998023215,-0.017365592643835585,75.0
765,3.06,-0.028753658162059822,-0.0032479605367480694,75.0
766,3.064,0.012103023630240803,-0.01663329053692033,75.0
767,3.068,-0.014191078996905282,-0.034950227126896515,75.0
768,3.072,-0.029072676665648077,-0.03401336433714367,75.0
769,3.076,-0.008850086710332099,0.014181450669807253,75.0
770,3.08,-0.032793881389374856,-0.012734647423391183,75.0
771,3.084,-0.0016547348745832283,0.04827864180101031,75.0
772,3.088,-0.01917377448650897,-0.013778969994783436,75.0
773,3.092,-0.022893683251921374,-0.031891383486801705,75.0
774,3.096,-0.03076806038060633,-0.04541416040192562,75.0
775,3.1,-0.02584416495057841,-0.05858158533344414,75.0
776,3.104,-0.047896760743682903,-0.016764112566060526,75.0
777,3.108,-0.020445590694364014,-0.06308155720453272,75.0
778,3.112,-0.022913986045935465,-0.07762103913752634,75.0
779,3.116,-0.03952089408944941,-0.03559811391701881,75.0
780,3.12,-0.03502188534500344,-0.030752373446901026,75.0
781,3.124,-0.039906654106383666,-0.07300107951542266,75.0
782,3.128,-0.0074423997077489295,-0.05659809601084076,75.0
783,3.132,-0.05165940641011596,-0.02383137105126524,75.0
784,3.136,-0.02976058232762986,-0.031585478076618254,75.0
785,3.14,-0.03630821507866797,0.002999064255956175,75.0
786,3.144,-0.04842355036236888,-0.017257487945235267,75.0
787,3.148,-0.018681873191025745,-0.10217227949658775,75.0
788,3.152,-0.050825568331282794,-0.0676732070106302,75.0
789,3.156,-0.057873273033767,-0.05398099752836126,75.0
790,3.16,-0.045477021962771515,-0.06739673250768362,75.0
791,3.164,-0.024701067506279272,-0.04730815224791616,75.0
792,3.168,-0.03115027845617555,-0.0440569095793091,75.0
793,3.172,-0.06021975851513699,-0.07323710815068328,75.0
794,3.176,-0.0521693345489469,-0.0686338161525405,75.0
795,3.18,-0.07219164707350574,-0.047492239617161675,75.0
796,3.184,-0.06872500955160958,-0.04386760429031135,75.0
797,3.188,-0.02864225956114027,-0.032862295661743125,75.0
798,3.192,-0.06940650161722381,-0.07996745374795741,75.0
799,3.196,-0.0624467349863594,-0.04558318856884783,75.0
800,3.2,-0.057524553579156326,-0.07069552197528015,75.0
801,3.204,-0.04514593837152588,-0.007101987305861757,75.0
802,3.208,-0.03382785293161753,-0.04580667346679687,75.0
803,3.212,-0.02588798837042541,-0.021588893255826413,75.0
804,3.216,0.008732316708686122,-0.026635941767506163,75.0
805,3.22,-0.01607826757563533,-0.03893318237037883,75.0
806,3.224,-0.020779908236526666,-0.03969283235549806,75.0
807,3.228,0.012282240970768308,0.00173433844016988,75.0
808,3.232,-0.009947264704319012,0.013059856695111007,75.0
809,3.236,0.002386713004989703,0.005316863948949936,75.0
810,3.24,0.016382185640984363,0.009730566711947431,75.0
811,3.244,0.008120924556502367,0.04988974563378177,75.0
812,3.248,0.03679080889248598,0.00143991232240372,75.0
813,3.252,0.029946153635763605,-0.0012023628013064164,75.0
814,3.256,0.041083964659261216,0.0254609600656804,75.0
815,3.26,0.052399155850271294,0.03519098197020599,75.0
816,3.264,0.01878243592559307,0.01512704543566884,75.0
817,3.268,0.012879696404779862,0.04737116915844268,75.0
818,3.272,0.005123487146351671,0.032354536827373236,75.0
819,3.276,-0.012519818313913985,0.01840203111961794,75.0
820,3.28,-0.006802526704065935,0.009778376289538596,75.0
821,3.284,0.008297824511478646,0.0006216127936651892,75.0
822,3.288,-0.008300101383947257,-0.023570323451898616,75.0
823,3.292,-0.02301698645287628,0.011111461707671348,75.0
824,3.296,-0.04489543071378976,-0.01034235881501277,75.0
825,3.3,0.008276639250877071,-0.027771261170091145,75.0
826,3.304,-0.04418114261991146,-0.0776141291773313,75.0
827,3.308,-0.05634507647137352,-0.06281049801930222,75.0
828,3.312,-0.06606748667971968,-0.06751211475237896,75.0
829,3.316,-0.05219040745016318,-0.10179481504520872,75.0
830,3.32,-0.12788322699282365,-0.11242133961411792,75.0
831,3.324,-0.18729857338180347,-0.18917064003097853,75.0
832,3.328,-0.26492327588820624,-0.24076703925916454,75.0
833,3.332,-0.20737011846277395,-0.18656914400364077,75.0
834,3.336,-0.14791020132561888,-0.0932274359142555,75.0
835,3.34,0.6337285866980802,0.6532673995530701,75.0
836,3.344,0.8309375224182316,0.8077897612964455,75.0
837,3.348,0.6201525912323848,0.5746030876082964,75.0
838,3.352,0.24003435017151847,0.26524599143346433,75.0
839,3.356,-0.003986546375596957,0.001930054029796368,75.0
840,3.36,-0.05664018634296748,-0.07217449545339502,75.0
841,3.364,-0.12459502927249291,-0.11355399423959787,75.0
842,3.368,-0.18239652861676361,-0.14229547327157885,75.0
843,3.372,-0.3056475425883043,-0.2471671222059346,75.0
844,3.376,-0.3122623116517559,-0.3430955732511655,75.0
845,3.38,-0.2762924973894025,-0.28937093133317454,75.0
846,3.384,-0.19269537823214575,-0.18111967485064956,75.0
847,3.388,-0.08997017362288763,-0.0947261199868981,75.0
848,3.392,-0.10223483666700109,-0.08464443023593446,75.0
849,3.396,-0.0955739603794879,-0.09599783988937817,75.0
850,3.4,-0.09626098872729166,-0.09896221044370138,75.0
851,3.404,-0.04127415759332379,-0.08549122473079075,75.0
852,3.408,-0.07413016584967799,-0.037348591006130125,75.0
853,3.412,-0.07599307479836495,-0.05843585610619009,75.0
854,3.416,-0.0722478138618095,-0.07224755987760788,75.0
855,3.42,-0.030077188334336678,-0.07978966452651746,75.0
856,3.424,-0.04395385206763949,-0.08702802239223191,75.0
857,3.428,-0.06783928936206124,-0.05362874590933999,75.0
858,3.432,-0.024212832083959076,-0.05109159470283558,75.0
859,3.436,-0.001820719921118487,-0.023807460043765594,75.0
860,3.44,-0.017202658255698246,-0.019334788146227168,75.0
861,3.444,-0.0014393088614928458,0.020076744980747116,75.0
862,3.448,0.02678336490344171,0.026115693697446502,75.0
863,3.452,0.025521126515543203,0.009172552359746863,75.0
864,3.456,0.06115320948583332,0.040898876302622816,75.0
865,3.46,0.046490407682744095,0.04562146481280878,75.0
866,3.464,0.05634779547841907,0.1355270019473416,75.0
867,3.468,0.07346696168706142,0.05007985344243729,75.0
868,3.472,0.09152054612682874,0.11427127956573913,75.0
869,3.476,0.09673757884067445,0.12212982155776458,75.0
870,3.48,0.13582984407695256,0.11569259211925853,75.0
871,3.484,0.13707175134904023,0.12971123474163637,75.0
872,3.488,0.17039841007002582,0.13885607864784,75.0
873,3.492,0.13777203398911575,0.1355032837677179,75.0
874,3.496,0.1539220670526054,0.1514316231829565,75.0
875,3.5,0.1403815449801051,0.1447737866483956,75.0
876,3.504,0.18049852569763516,0.1490711634553339,75.0
877,3.508,0.2107416010287921,0.1414695600768376,75.0
878,3.512,0.1868381223639123,0.19460327869885366,75.0
879,3.516,0.17360606546441676,0.16720033945251842,75.0
880,3.52,0.21087323744713476,0.19782715101218823,75.0
881,3.524,0.19558307426639687,0.11901826896642624,75.0
882,3.528,0.1649669882062723,0.16873738494442914,75.0
883,3.532,0.19226239106253906,0.18559819052153242,75.0
884,3.536,0.18880095626328505,0.15037235883752575,75.0
885,3.54,0.1628665565390636,0.17844489469576721,75.0
886,3.544,0.18256895023298073,0.18845565741669118,75.0
887,3.548,0.1277733901306364,0.1193857973030947,75.0
888,3.552,0.13641311502430734,0.1450322446466428,75.0
889,3.556,0.13103981504503734,0.11540469801219104,75.0
890,3.56,0.13874620448890274,0.08059545596174682,75.0
891,3.564,0.13796102188861972,0.11524235122646281,75.0
892,3.568,0.11069068006523812,0.1111518177852476,75.0
893,3.572,0.09348963689380368,0.08580808498104298,75.0
894,3.576,0.0704787152681112,0.10541202200044433,75.0
895,3.58,0.02269894503233322,0.06425635542570153,75.0
896,3.584,0.04496477938294249,0.05489058435592924,75.0
897,3.588,0.022966943001015868,0.037297725556778925,75.0
898,3.592,0.02788009914429817,0.01920807067895215,75.0
899,3.596,0.04659793303722634,0.010852039095753767,75.0
900,3.6,-0.014090533154844183,0.019665518633497536,75.0
901,3.604,0.010952297277037122,0.004360872447598485,75.0
902,3.608,-0.03777612360973068,-0.010385187401451569,75.0
903,3.612,-0.02917053181030727,-0.015132104467532716,75.0
904,3.616,-0.04934540011013096,-0.020168858291567383,75.0
905,3.62,-0.025820886262876874,-0.06344590936135215,75.0
906,3.624,-0.06224112236658005,-0.060750914389937155,75.0
907,3.628,-0.09012998702098489,-0.06855134593725994,75.0
908,3.632,-0.08286684445655981,-0.0619833304030415,75.0
909,3.636,-0.12384207412330134,-0.060626961685462465,75.0
910,3.64,-0.10306726593409801,-0.06021773149020282,75.0
911,3.644,-0.08947522761080433,-0.11092122071336843,75.0
912,3.648,-0.09384086197925527,-0.04614921322280588,75.0
913,3.652,-0.08224578691760676,-0.11458631091724601,75.0
914,3.656,-0.07190787504841475,-0.12587110430142695,75.0
915,3.66,-0.08066548014824673,-0.0838575608148041,75.0
916,3.664,-0.09284034315217446,-0.10133613915363528,75.0
917,3.668,-0.08164230944985286,-0.08143022837582206,75.0
918,3.672,-0.10668661943326543,-0.062016598076207075,75.0
919,3.676,-0.06990738111974579,-0.09034892478757915,75.0
920,3.68,-0.08452424659518966,-0.0815790030560479,75.0
921,3.684,-0.10201156085597803,-0.07572011467490232,75.0
922,3.688,-0.07708888374081628,-0.0789318461921961,75.0
923,3.692,-0.08321912886915953,-0.04503512237728391,75.0
924,3.696,-0.09979326628070144,-0.08265116520661489,75.0
925,3.7,-0.0486265500782559,-0.06484970393715128,75.0
926,3.704,-0.05058551420197708,-0.07584187848499858,75.0
927,3.708,-0.06434460081151593,-0.07668943300562164,75.0
928,3.712,-0.07369050043545647,-0.07995386104503341,75.0
929,3.716,-0.09373052606934704,-0.06465801206141489,75.0
930,3.72,-0.10318643456691931,-0.050088475719911436,75.0
931,3.724,-0.06660363794381736,-0.021710556207335627,75.0
932,3.728,-0.06824606016208765,-0.07394917308564049,75.0
933,3.732,-0.07229750754243502,-0.06085317629041546,75.0
934,3.736,-0.0570804289278087,-0.07006428890845658,75.0
935,3.74,-0.05202504922326771,-0.08177708502755977,75.0
936,3.744,-0.07585299316515565,-0.08343203359406202,75.0
937,3.748,-0.09264787314260853,-0.03859759390609938,75.0
938,3.752,-0.09243059867276224,-0.05388996424210666,75.0
939,3.756,-0.04481532532882456,-0.10552186139774204,75.0
940,3.76,-0.05826267093777182,-0.05191167405582272,75.0
941,3.764,-0.03929107582248119,-0.0798550315909757,75.0
942,3.768,-0.05298785872665641,-0.028485776553744752,75.0
943,3.772,-0.04957804325834792,-0.03301781620199745,75.0
944,3.776,-0.10076936694643698,-0.07218792145044782,75.0
945,3.78,-0.07473732597393362,-0.056202367982014736,75.0
946,3.784,-0.058451764669161216,-0.029600317840247355,75.0
947,3.788,-0.09734126866558138,-0.0660676841607996,75.0
948,3.792,-0.026530638442271423,-0.05280017232616932,75.0
949,3.796,-0.0050660445169540234,-0.041260029710190986,75.0
950,3.8,-0.07391202169038785,-0.07577652013611638,75.0
951,3.804,-0.06471230312197004,-0.06598008236260043,75.0
952,3.808,-0.037813373327172,-0.04311100990849911,75.0
953,3.812,-0.05230751556231357,-0.09348584730570338,75.0
954,3.816,-0.03699318490783095,-0.03907728388817446,75.0
955,3.82,-0.04828895961188883,-0.02643526171703238,75.0
956,3.824,-0.04842548165248198,-0.05036323269560692,75.0
957,3.828,-0.05314727748645264,-0.07487610332227414,75.0
958,3.832,-0.02644441973563325,-0.06648550099763272,75.0
959,3.836,-0.05618972351977393,-0.04567598098760148,75.0
960,3.84,-0.04304661333316089,-0.03257127077039175,75.0
961,3.844,-0.04735058770881828,-0.016774288338589273,75.0
962,3.848,-0.06627571850560006,-0.043326927673176786,75.0
963,3.852,-0.06837486860350056,-0.028386300583029576,75.0
964,3.856,-0.08680824563271643,-0.0480843097657431,75.0
965,3.86,-0.0818704219123144,-0.04547236887274505,75.0
966,3.864,-0.026086714315047645,-0.04280541533165333,75.0
967,3.868,-0.07105134137401153,-0.005201818848280392,75.0
968,3.872,-0.033089611684709,-0.039005773982805955,75.0
969,3.876,-0.0587566946986844,-0.04630900759986566,75.0
970,3.88,-0.04460657372351173,-0.014167046861581177,75.0
971,3.884,-0.050218724619187305,-0.06906850523347513,75.0
972,3.888,-0.018360823487472526,-0.05320590375353231,75.0
973,3.892,-0.019185498504615157,-0.05249908546835577,75.0
974,3.896,-0.011214900668566615,-0.025251161211378048,75.0
975,3.9,0.008933121695271594,-0.00018749995123113982,75.0
976,3.904,-0.03830706079208462,-0.05053839869932596,75.0
977,3.908,0.007720275639823659,-0.046247640853471744,75.0
978,3.912,-0.020217345471171957,-0.0529035825208024,75.0
979,3.916,-0.014109005815981318,-0.009210136544903267,75.0
980,3.92,-0.022085637837118186,-0.008546622515927542,75.0
981,3.924,-0.018114915398041997,-0.006663422560023408,75.0
982,3.928,-0.020047580342031655,0.008895088503171288,75.0
983,3.932,0.003781804456854884,-0.01958751886194486,75.0
984,3.936,-0.02669429223276434,-0.011908037275095984,75.0
985,3.94,-0.02385781845400446,-0.02160252597404451,75.0
986,3.944,-0.02999835349793217,-0.011366691742929107,75.0
987,3.948,-0.013911847829408122,0.011217444704405407,75.0
988,3.952,-0.027699072581552995,-0.02412933513452761,75.0
989,3.956,-0.007259610932844332,-0.019616454100851718,75.0
990,3.96,-0.015190288137016452,0.013579341189475737,75.0
991,3.964,-0.03014505707073434,0.021101349784898166,75.0
992,3.968,-0.032988923026652975,0.005659597710218132,75.0
993,3.972,-0.010568617266611756,-0.05554252882185493,75.0
994,3.976,-0.007976765361609149,-0.028655192831084385,75.0
995,3.98,0.026432820093942534,-0.007872819386003921,75.0
996,3.984,0.019009271601354617,-0.013401413009605354,75.0
997,3.988,0.009987249613358765,-0.015823860971473386,75.0
998,3.992,0.0001320159611420833,-0.009718929885358914,75.0
999,3.996,-0.0016079703464189033,-0.019171100158678143,75.0
1000,4.0,-0.006183179158114691,-0.023352103679710905,75.0
1001,4.004,-0.004883126307282247,0.027174189631652183,75.0
1002,4.008,0.01641434999572416,0.04881194922162904,75.0
1003,4.012,0.006674371265977631,0.04475852457266097,75.0
1004,4.016,0.058561583666024576,0.09400327021794107,75.0
1005,4.02,0.04381075089890986,0.049085675850804616,75.0
1006,4.024,0.02973873628346551,0.061378199961264215,75.0
1007,4.028,0.04383903087878362,0.098133659463491,75.0
1008,4.032,0.10193595149722832,0.0788562258007809,75.0
1009,4.036,0.09342928024587531,0.12354996615966005,75.0
1010,4.04,0.07963141602891524,0.030158217409717775,75.0
1011,4.044,0.0753557171146193,0.041189192359658906,75.0
1012,4.048,0.10426686444180347,0.10718974617923253,75.0
1013,4.052,0.1050883462231498,0.0808794774545132,75.0
1014,4.056,0.09857224667166564,0.13284453470156699,75.0
1015,4.06,0.11363896516516728,0.046021944494898805,75.0
1016,4.064,0.09729978609506681,0.12486485750568209,75.0
1017,4.068,0.09747024879939634,0.13394338608830794,75.0
1018,4.072,0.11730089845543121,0.10845518523981877,75.0
1019,4.076,0.09776700450277659,0.07908414831425951,75.0
1020,4.08,0.09841062856654403,0.13018571302736046,75.0
1021,4.084,0.12186250540437353,0.08580889819082409,75.0
1022,4.088,0.09880414961790338,0.11062426839449446,75.0
1023,4.092,0.03215305573453855,0.07456408155966861,75.0
1024,4.096,0.07975859528968396,0.0753919894807232,75.0
1025,4.1,0.06870456700043649,0.07271995600982141,75.0
1026,4.104,0.06822376837969013,0.01672572977763819,75.0
1027,4.108,0.07535219889609522,0.0438718914782812,75.0
1028,4.112,0.053234183603983506,0.018809957265377934,75.0
1029,4.116,0.06937034285372436,0.040201322688566264,75.0
1030,4.12,0.04939405545180787,0.023377348871822638,75.0
1031,4.124,-0.12116675704588575,-0.09309331617008945,75.0
1032,4.128,-0.19115042629672016,-0.13524209173608912,75.0
1033,4.132,-0.10170273978662751,-0.07036578694902595,75.0
1034,4.136,-0.05005363231408529,-0.03300837995660316,75.0
1035,4.14,0.7389193466092486,0.7183634700795665,75.0
1036,4.144,0.965051823771598,0.8896917692928316,75.0
1037,4.148,0.7962917602948532,0.7320447519285331,75.0
1038,4.152,0.38823821053070945,0.3395957640497659,75.0
1039,4.156,0.12959392134876732,0.1538087678633399,75.0
1040,4.16,0.08421785478171734,0.057206232554319475,75.0
1041,4.164,0.013803765888795422,0.012987170348316807,75.0
1042,4.168,-0.026971110956912858,-0.037320241382692784,75.0
1043,4.172,-0.18347403059613404,-0.15443516950482505,75.0
1044,4.176,-0.21866492374131707,-0.20053917185241013,75.0
1045,4.18,-0.1906037347421381,-0.16433290955418237,75.0
1046,4.184,-0.0542157526849169,-0.048748249518444225,75.0
1047,4.188,0.07643858958709872,0.03679356462218094,75.0
1048,4.192,0.028534958556008766,0.05349190706823332,75.0
1049,4.196,0.06379496348807655,0.050755408572264966,75.0
1050,4.2,0.043723285655289566,0.03700237405831883,75.0
1051,4.204,0.04092386309531066,0.03862229423079764,75.0
1052,4.208,0.049284055942659256,0.09150383461707182,75.0
1053,4.212,0.04577752055197352,0.061875591432359545,75.0
1054,4.216,0.07721304269180763,0.0695645182985657,75.0
1055,4.22,0.09201098359690041,0.10189242170236888,75.0
1056,4.224,0.1072184492602493,0.1129367005746758,75.0
1057,4.228,0.12405518370091285,0.1073146095596132,75.0
1058,4.232,0.06841453642252408,0.17634270881134573,75.0
1059,4.236,0.13986250869155978,0.08337356318647014,75.0
1060,4.24,0.16014494494545417,0.14063815870989446,75.0
1061,4.244,0.14945608133534705,0.16544418404052347,75.0
1062,4.248,0.15364264286198298,0.15700160174384212,75.0
1063,4.252,0.22380752717065855,0.1911149595110835,75.0
1064,4.256,0.195266561497857,0.18320343823865143,75.0
1065,4.26,0.20162105039579883,0.19872360444867904,75.0
1066,4.264,0.21790014382259068,0.19373375284063366,75.0
1067,4.268,0.28070192609382066,0.23279750506493796,75.0
1068,4.272,0.28027930276175644,0.22152296369180285,75.0
1069,4.276,0.28535211020297035,0.27072516869610513,75.0
1070,4.28,0.30448728772847194,0.28701258582158373,75.0
1071,4.284,0.2829361158482569,0.33322365815869287,75.0
1072,4.288,0.3123708972574441,0.23953034963509584,75.0
1073,4.292,0.33377186207978227,0.29181301209538085,75.0
1074,4.296,0.3407546817966128,0.2924337449106109,75.0
1075,4.3,0.33367791468721714,0.30738200228687435,75.0
1076,4.304,0.3286355177449311,0.32931775490055865,75.0
1077,4.308,0.3326098518901346,0.3320136450235911,75.0
1078,4.312,0.3589969212181959,0.3358139979399585,75.0
1079,4.316,0.33891329231664447,0.3328794326163762,75.0
1080,4.32,0.36725736790954827,0.33926481615576654,75.0
1081,4.324,0.36940070522915225,0.3362981479653288,75.0
1082,4.328,0.36688380172663343,0.32671621609052653,75.0
1083,4.332,0.33306108681825836,0.32090800367150535,75.0
1084,4.336,0.34407749764437906,0.31123048964674754,75.0
1085,4.34,0.3484925425451122,0.32870293383840044,75.0
1086,4.344,0.33211353210186717,0.311498291348848,75.0
1087,4.348,0.3274646709243693,0.33002087472499586,75.0
1088,4.352,0.3298182859172682,0.28222728242540085,75.0
1089,4.356,0.3207926484971864,0.2748302876770249,75.0
1090,4.36,0.31341928023462745,0.2609235466948823,75.0
1091,4.364,0.2765731597429278,0.27889994225215964,75.0
1092,4.368,0.2624530967691634,0.2542507233703159,75.0
1093,4.372,0.25894995248133773,0.277952923759097,75.0
1094,4.376,0.24809692205553668,0.20756891626584414,75.0
1095,4.38,0.21177905953261708,0.2341676353384105,75.0
1096,4.384,0.2159714248256219,0.22051060041137743,75.0
1097,4.388,0.17154945684798226,0.2062456584734685,75.0
1098,4.392,0.23048226689207174,0.17193431374068274,75.0
1099,4.396,0.18772650365616786,0.14796195877995175,75.0
1100,4.4,0.1896064314350111,0.16394448902486175,75.0
1101,4.404,0.1784072875326173,0.16911651077753304,75.0
1102,4.408,0.15120917956193544,0.15199780186242323,75.0
1103,4.412,0.11969707719138875,0.08428179653257749,75.0
1104,4.416,0.16665001445915403,0.1158946099031113,75.0
1105,4.42,0.12052903090381246,0.10879007043627,75.0
1106,4.424,0.12452866931726916,0.10102865013827315,75.0
1107,4.428,0.09884957279255618,0.11612102206603693,75.0
1108,4.432,0.1234247033489357,0.10477732263120022,75.0
1109,4.436,0.09167736160178375,0.0816641700311607,75.0
1110,4.44,0.08420411606826572,0.10401802642536913,75.0
1111,4.444,0.09599872758415255,0.0899813648220605,75.0
1112,4.448,0.06809692007717537,0.08334202762192244,75.0
1113,4.452,0.10394238172603748,0.08562510049483882,75.0
1114,4.456,0.10951617765992365,0.10682006567056788,75.0
1115,4.46,0.08927095103695858,0.06737376788342228,75.0
1116,4.464,0.12014933724645895,0.06276293557434813,75.0
1117,4.468,0.0939205915280129,0.10434219561176727,75.0
1118,4.472,0.09594201042129245,0.10701673435131838,75.0
1119,4.476,0.0993162864010057,0.08668649505441861,75.0
1120,4.48,0.0884927826092652,0.0742922915970684,75.0
1121,4.484,0.0636746007271738,0.07251098301097869,75.0
1122,4.488,0.09040168588526533,0.05457824609648185,75.0
1123,4.492,0.08471696905782862,0.09200061359941687,75.0
1124,4.496,0.11651864035679632,0.03986743661886374,75.0
1125,4.5,0.07218901247142374,0.08124972255402443,75.0
1126,4.504,0.09097123626998915,0.10117529002465289,75.0
1127,4.508,0.10182426467575245,0.07585590576369033,75.0
1128,4.512,0.09130402482021761,0.10054226984389328,75.0
1129,4.516,0.10157784961980285,0.10738473195513903,75.0
1130,4.52,0.10814306119120477,0.0838734743381765,75.0
1131,4.524,0.11078638007203798,0.0805854041215885,75.0
1132,4.528,0.08223370389537264,0.08788011559953783,75.0
1133,4.532,0.09208667917547246,0.05536694025493643,75.0
1134,4.536,0.08965424695715812,0.07981608337169947,75.0
1135,4.54,0.05650050195846652,0.09249910097693345,75.0
1136,4.544,0.09189497825647941,0.10910873338896845,75.0
1137,4.548,0.10106176815179913,0.06984483448975887,75.0
1138,4.552,0.0755611284384935,0.10242224228074452,75.0
1139,4.556,0.0772973901593742,0.0902818193794217,75.0
1140,4.56,0.12496329891301505,0.08840008532450902,75.0
1141,4.564,0.09918777836044025,0.06417468354390818,75.0
1142,4.568,0.072240291610829,0.08100183089893877,75.0
1143,4.572,0.12221268081289752,0.07322891194570894,75.0
1144,4.576,0.1232487137998519,0.11005844828877846,75.0
1145,4.58,0.08272399639302135,0.09978127396843198,75.0
1146,4.584,0.07891865079773318,0.07406202028263659,75.0
1147,4.588,0.09113485861845126,0.07274549568701305,75.0
1148,4.592,0.10646259706663558,0.10848286715281102,75.0
1149,4.596,0.07735418991149824,0.13377690309853368,75.0
1150,4.6,0.10855485403662249,0.06960602525171738,75.0
1151,4.604,0.1083503602531061,0.09830931137358377,75.0
1152,4.608,0.08624141408860857,0.05898902396291645,75.0
1153,4.612,0.06350436652743016,0.10833330032587969,75.0
1154,4.616,0.09863492719581984,0.07644066252113542,75.0
1155,4.62,0.09460164285080078,0.12570816727846088,75.0
1156,4.624,0.09431690866924053,0.07157250966092084,75.0
1157,4.628,0.07151894510480108,0.06771681274570542,75.0
1158,4.632,0.06555848450988361,0.057367930161273874,75.0
1159,4.636,0.03943803780830272,0.10210321199613243,75.0
1160,4.64,0.09484806186314529,0.05499518289834895,75.0
1161,4.644,0.0822923565018885,0.07344572220278019,75.0
1162,4.648,0.0673123318410455,0.06942131792688266,75.0
1163,4.652,0.08306665544213694,0.10112645974751212,75.0
1164,4.656,0.07551639778067891,0.08420862254547505,75.0
1165,4.66,0.10434004788991275,0.08279943262979203,75.0
1166,4.664,0.08259731399205011,0.10163992073293643,75.0
1167,4.668,0.09091013932851928,0.05366476487113397,75.0
1168,4.672,0.04203793269700805,0.08024270543628026,75.0
1169,4.676,0.0888493737301898,0.06509809873077749,75.0
1170,4.68,0.08406787756349661,0.08183745875657922,75.0
1171,4.684,0.06655827712701116,0.08688922926371569,75.0
1172,4.688,0.09697560707057022,0.13221412854109416,75.0
1173,4.692,0.05416495430940377,0.10343490095787321,75.0
1174,4.696,0.04306596393771532,0.04860875222191297,75.0
1175,4.7,0.06161695232084246,0.08919474051972894,75.0
1176,4.704,0.07064973000820783,0.05326637782140067,75.0
1177,4.708,0.04453674859188851,0.06246548205329622,75.0
1178,4.712,0.07059054824784528,0.036695164524246454,75.0
1179,4.716,0.0921265533106048,0.0512866626705234,75.0
1180,4.72,0.07297688358478066,0.06900776383435314,75.0
1181,4.724,0.0702801150861178,0.06271790298241796,75.0
1182,4.728,0.054883415683684565,0.052097561350775985,75.0
1183,4.732,0.10183538770886498,0.041244220248254554,75.0
1184,4.736,0.060122629516903475,0.05372069958403188,75.0
1185,4.74,0.056547229622126854,0.06631088834544191,75.0
1186,4.744,0.07778624500684728,0.08083205732009603,75.0
1187,4.748,0.020033800520352398,0.0505510808636135,75.0
1188,4.752,0.06874320919083135,0.07609927475183641,75.0
1189,4.756,0.04952901756178029,0.054196689938451635,75.0
1190,4.76,0.07137979186350377,0.05565646564241838,75.0
1191,4.764,0.04788956438591148,0.045487568859272146,75.0
1192,4.768,0.06212055435912738,0.07455799336784766,75.0
1193,4.772,0.0853538671076013,0.05627332434874482,75.0
1194,4.776,0.023143131431228522,0.03538436574853123,75.0
1195,4.78,0.04764633321803109,0.08673171148521532,75.0
1196,4.784,0.06347035248446825,0.04874995478157687,75.0
1197,4.788,0.06255469187244532,0.02566127699581931,75.0
1198,4.792,0.059253472285077526,0.03186815981786106,75.0
1199,4.796,0.061620176254777115,0.011543151019963343,75.0
1200,4.8,0.07102338928353737,0.05093869546563551,75.0
1201,4.804,0.053599593581551114,0.05069919292883265,75.0
1202,4.808,0.045986585177211214,0.08425084058668258,75.0
1203,4.812,0.06261265587078133,0.0676185817092681,75.0
1204,4.816,0.09935883415176998,0.07935308319675638,75.0
1205,4.82,0.06964355537050174,0.11525419885589368,75.0
1206,4.824,0.0904615658039046,0.1272872254252441,75.0
1207,4.828,0.09624077074513415,0.10241464810688135,75.0
1208,4.832,0.13445251779991432,0.13038436078171264,75.0
1209,4.836,0.14075453952690423,0.11767692911893343,75.0
1210,4.84,0.12636441112087854,0.12170752596070347,75.0
1211,4.844,0.11327873385181896,0.11523356031299853,75.0
1212,4.848,0.1097297598812463,0.1494514308446983,75.0
1213,4.852,0.1271225539172528,0.1372368710803253,75.0
1214,4.856,0.10740052655850243,0.11544551577606343,75.0
1215,4.86,0.1555583550923176,0.1312965036004387,75.0
1216,4.864,0.14980021090690301,0.14805513185795674,75.0
1217,4.868,0.16225553598770628,0.1146393579667541,75.0
1218,4.872,0.126679195410764,0.0990466104019842,75.0
1219,4.876,0.10098980491409836,0.12155418766410946,75.0
1220,4.88,0.10535420301290116,0.11494201361637227,75.0
1221,4.884,0.14865059019532914,0.14627415705109312,75.0
1222,4.888,0.104222101572062,0.08925072018029183,75.0
1223,4.892,0.05865310347472268,0.0929796196359017,75.0
1224,4.896,0.06937679190284224,0.09197083906957221,75.0
1225,4.9,0.10960623057448259,0.10242498064503007,75.0
1226,4.904,0.05717897591882649,0.05257881224127684,75.0
1227,4.908,0.07739491986837926,0.08975551450123512,75.0
1228,4.912,0.07345554620068173,0.042286094804947834,75.0
1229,4.916,0.09441008397229095,0.056742031073436366,75.0
1230,4.92,0.022212918705018313,0.007440427075692492,75.0
1231,4.924,-0.13899729147950485,-0.11391119178042035,75.0
1232,4.928,-0.1822890411331233,-0.17429518585803663,75.0
1233,4.932,-0.10250015103265735,-0.1369182061459114,75.0
1234,4.936,-0.06594645749225127,-0.031807002606509045,75.0
1235,4.94,0.7240489551095183,0.6921199639733878,75.0
1236,4.944,0.9267418090332439,0.9007065821059881,75.0
1237,4.948,0.7209029549436816,0.6903832859844534,75.0
1238,4.952,0.3514376425329742,0.34012373739602203,75.0
1239,4.956,0.09256420490079226,0.058671345675809734,75.0
1240,4.96,0.006908465169485373,0.013411258857112121,75.0
1241,4.964,-0.009060243720818487,-0.0012346233603807283,75.0
1242,4.968,-0.08403903741928491,-0.06879920243890206,75.0
1243,4.972,-0.20615346039090104,-0.16439183790051506,75.0
1244,4.976,-0.26171227003993974,-0.23110594411655278,75.0
1245,4.98,-0.1969686407183975,-0.22465360335573203,75.0
1246,4.984,-0.10436911474270197,-0.02068467496618305,75.0
1247,4.988,-0.032058282414762385,-0.009592075471158706,75.0
1248,4.992,0.04364415467810384,0.022656670982871593,75.0
1249,4.996,-0.008031959783015259,0.002227525056965337,75.0
1250,5.0,0.005469257940003511,0.03130618401694545,75.0
1251,5.004,0.011067964486249908,-0.009742673987323855,75.0
1252,5.008,0.02322097502247404,0.0008974786210136041,75.0
1253,5.012,0.03773027808485115,0.02658897959272532,75.0
1254,5.016,0.03349320182023778,-0.007064046953958264,75.0
1255,5.02,0.04978003291184193,0.0272165100669763,75.0
1256,5.024,0.07865989381902593,0.02924144097165007,75.0
1257,5.028,0.0314236331203854,0.06365188559306692,75.0
1258,5.032,0.05288706095971458,0.04827634960545246,75.0
1259,5.036,0.07036283681017716,0.0828568794516877,75.0
1260,5.04,0.11172054354064974,0.07902961912784473,75.0
1261,5.044,0.12261890243264884,0.07791653433039848,75.0
1262,5.048,0.0858152671332706,0.08954807401479817,75.0
1263,5.052,0.0859765784237457,0.09548256957723764,75.0
1264,5.056,0.13496709894600264,0.09216676845730012,75.0
1265,5.06,0.1224506169367148,0.12800940772871286,75.0
1266,5.064,0.18121977921397164,0.13357982037948857,75.0
1267,5.068,0.12870513911303538,0.1155989734513948,75.0
1268,5.072,0.17207301962125993,0.13498019152786164,75.0
1269,5.076,0.17501432227975014,0.1636380685347675,75.0
1270,5.08,0.18489184070720724,0.20282995560975886,75.0
1271,5.084,0.16028476877039202,0.17982338653781638,75.0
1272,5.088,0.15711851002247645,0.21888617539027524,75.0
1273,5.092,0.22725689130276933,0.21352287226104907,75.0
1274,5.096,0.1926389607595202,0.21147578113309126,75.0
1275,5.1,0.23808280764610154,0.22679974993797725,75.0
1276,5.104,0.24473433222672908,0.200759583304674,75.0
1277,5.108,0.24857226619245398,0.2087211611094761,75.0
1278,5.112,0.23012179245539036,0.2247518006746966,75.0
1279,5.116,0.24157197438440958,0.2177502505275008,75.0
1280,5.12,0.2516744584951455,0.25345490276691224,75.0
1281,5.124,0.21806739416176044,0.25052528600563123,75.0
1282,5.128,0.23472360721337043,0.2287950270877294,75.0
1283,5.132,0.2150961498468684,0.21116852505498598,75.0
1284,5.136,0.25236150372644756,0.19222143254352736,75.0
1285,5.14,0.2046582657170507,0.20680052980193475,75.0
1286,5.144,0.22585525922835625,0.20080119730046447,75.0
1287,5.148,0.24654897317045293,0.19091412101142857,75.0
1288,5.152,0.2042380756775592,0.17011120521150525,75.0
1289,5.156,0.17951321010239807,0.1790693766777586,75.0
1290,5.16,0.13655244790959722,0.1711029798064114,75.0
1291,5.164,0.13867478364253805,0.15125068727232346,75.0
1292,5.168,0.1632124156853678,0.1394730539376446,75.0
1293,5.172,0.12401632968260917,0.10830647833369028,75.0
1294,5.176,0.12799925862148287,0.09279561436309533,75.0
1295,5.18,0.13234576015028943,0.08229491438265311,75.0
1296,5.184,0.08607064692630426,0.08354992724508449,75.0
1297,5.188,0.08259644475020893,0.02121386348305745,75.0
1298,5.192,0.07244851728425519,0.04604068751881821,75.0
1299,5.196,0.07712828671606034,0.054108930467760614,75.0
1300,5.2,0.048107440482440346,0.05244010748450985,75.0
1301,5.204,0.011636813008517715,0.009086124541235105,75.0
1302,5.208,-0.031077799611259893,-0.013199035173136368,75.0
1303,5.212,0.010003433176960357,0.016024817763500444,75.0
1304,5.216,-0.005273150798721126,-0.009283403296074941,75.0
1305,5.22,-0.03150320871019438,-0.0038908308284056198,75.0
1306,5.224,0.0039693523061693665,-0.05290795193039057,75.0
1307,5.228,-0.04480123380583177,-0.03088539852169427,75.0
1308,5.232,-0.037250745178893846,-0.053381154024081987,75.0
1309,5.236,-0.033277200601634103,-0.01563715986528348,75.0
1310,5.24,-0.0644254221949438,-0.09499128165055137,75.0
1311,5.244,-0.07800333913951664,-0.0563857842406024,75.0
1312,5.248,-0.030751162566523632,-0.0670108873202402,75.0
1313,5.252,-0.049433135930542306,-0.04692940619030612,75.0
1314,5.256,-0.07063875524497484,-0.052928995192565734,75.0
1315,5.26,-0.0532799018852245,-0.09526674307458091,75.0
1316,5.264,-0.08896614174914715,-0.08363128289503945,75.0
1317,5.268,-0.058405706076347555,-0.06797462924948315,75.0
1318,5.272,-0.05631904568459031,-0.028325528552980307,75.0
1319,5.276,-0.06421776822241954,-0.06446194871827549,75.0
1320,5.28,-0.032777002691083905,-0.08208801473642366,75.0
1321,5.284,-0.07822467811640181,-0.050061980908333414,75.0
1322,5.288,-0.07557809000391323,-0.09565213890812593,75.0
1323,5.292,-0.07118350937859928,-0.08238659572394338,75.0
1324,5.296,-0.053919356795068485,-0.05822125992701155,75.0
1325,5.3,-0.06398685710836077,-0.038088953139788655,75.0
1326,5.304,-0.05922011302571603,-0.04261239677004266,75.0
1327,5.308,-0.08787856718441253,-0.07565773046010733,75.0
1328,5.312,-0.07455027855356512,-0.07213698022725475,75.0
1329,5.316,-0.08699545644180413,-0.1069624390444692,75.0
1330,5.32,-0.0769776737971017,-0.10893610147071951,75.0
1331,5.324,-0.09666839786088534,-0.08590371270271742,75.0
1332,5.328,-0.07663845312906234,-0.08693386931691968,75.0
1333,5.332,-0.08593773005487307,-0.05254912453846571,75.0
1334,5.336,-0.08350873805190724,-0.07733655966931555,75.0
1335,5.34,-0.07742168963926842,-0.10027827926962243,75.0
1336,5.344,-0.058768177620687784,-0.06354077536612683,75.0
1337,5.348,-0.03179771335426391,-0.10613460103121745,75.0
1338,5.352,-0.09130637950389332,-0.11551128744301724,75.0
1339,5.356,-0.09770793613072175,-0.10560157501770076,75.0
1340,5.36,-0.09468252596635647,-0.06471593261417403,75.0
1341,5.364,-0.09157258638043979,-0.08211244869994655,75.0
1342,5.368,-0.08173002318981812,-0.07401284633380655,75.0
1343,5.372,-0.0835832952362295,-0.05683564467331868,75.0
1344,5.376,-0.09695220814530818,-0.12953793405506825,75.0
1345,5.38,-0.1034225703488893,-0.058381066584859836,75.0
1346,5.384,-0.09615791016945018,-0.06820851145809807,75.0
1347,5.388,-0.08890499446626747,-0.08582268126130639,75.0
1348,5.392,-0.07697153577321375,-0.08176042251132228,75.0
1349,5.396,-0.06655545351805375,-0.09595016475817476,75.0
1350,5.4,-0.14030988149654447,-0.07451835368754968,75.0
1351,5.404,-0.08195241096940345,-0.09821286457832563,75.0
1352,5.408,-0.06396992082990315,-0.07301982461323503,75.0
1353,5.412,-0.10760334877584554,-0.08183153816721266,75.0
1354,5.416,-0.1048563493113139,-0.0702767749236655,75.0
1355,5.42,-0.08435239439047576,-0.0802644506742792,75.0
1356,5.424,-0.07590528300493835,-0.10308632530510388,75.0
1357,5.428,-0.10272909746324893,-0.07898064877031266,75.0
1358,5.432,-0.08490807906527267,-0.09331951657120972,75.0
1359,5.436,-0.11370515629357315,-0.08214760999066587,75.0
1360,5.44,-0.09192161416635478,-0.07921904916006797,75.0
1361,5.444,-0.12771958884843676,-0.10243677717711157,75.0
1362,5.448,-0.06555620412882586,-0.05161816648720853,75.0
1363,5.452,-0.05901072800270133,-0.09628650982760739,75.0
1364,5.456,-0.08792822814143914,-0.09786315576884594,75.0
1365,5.46,-0.0972954309257685,-0.11106467605597914,75.0
1366,5.464,-0.05703167441501437,-0.0562802584117875,75.0
1367,5.468,-0.09165415380483,-0.08801862374246884,75.0
1368,5.472,-0.08103441147529483,-0.11254129675455551,75.0
1369,5.476,-0.08641948434410801,-0.03953912918881387,75.0
1370,5.48,-0.09605676705681641,-0.08555437770078912,75.0
1371,5.484,-0.09828835873094859,-0.07225421816688499,75.0
1372,5.488,-0.09954821861467146,-0.08944383265498726,75.0
1373,5.492,-0.09241838463367784,-0.10694907251067941,75.0
1374,5.496,-0.1035733181398346,-0.06677516355314443,75.0
1375,5.5,-0.10345716141052085,-0.08755087532796033,75.0
1376,5.504,-0.08338609876473985,-0.09208075142716539,75.0
1377,5.508,-0.07793174008660961,-0.07691513146975117,75.0
1378,5.512,-0.06638397034837826,-0.09996228240015455,75.0
1379,5.516,-0.07925528515921629,-0.07130486307961735,75.0
1380,5.52,-0.1256393844993095,-0.10793417062214064,75.0
1381,5.524,-0.07574390374836559,-0.09079574273807318,75.0
1382,5.528,-0.06630965651390854,-0.08944769303636271,75.0
1383,5.532,-0.11070701219560308,-0.09527915707459582,75.0
1384,5.536,-0.0710744407555533,-0.057919430541401376,75.0
1385,5.54,-0.07867271420804012,-0.05743655264740007,75.0
1386,5.544,-0.06919057405335748,-0.08595109612078149,75.0
1387,5.548,-0.0845980471368815,-0.09186684114017853,75.0
1388,5.552,-0.12421733177151484,-0.08424371814058688,75.0
1389,5.556,-0.08053792702604855,-0.05631604303932488,75.0
1390,5.56,-0.08787673797322948,-0.0885355415102179,75.0
1391,5.564,-0.10117541655681435,-0.07782549586469255,75.0
1392,5.568,-0.09587822475399001,-0.07058317800945918,75.0
1393,5.572,-0.100562596930092,-0.13361839677125426,75.0
1394,5.576,-0.05828781755900753,-0.09413507248590629,75.0
1395,5.58,-0.12138989253491919,-0.11223176633648682,75.0
1396,5.584,-0.08259646244383448,-0.0753726449442376,75.0
1397,5.588,-0.0820733417082688,-0.09039646841857234,75.0
1398,5.592,-0.09123835735669089,-0.07912144374967972,75.0
1399,5.596,-0.06983771236580674,-0.11687826789944902,75.0
1400,5.6,-0.10267387153159935,-0.06544341055265186,75.0
1401,5.604,-0.06643698484236168,-0.06547118291033807,75.0
1402,5.608,-0.05567795458064839,-0.07423791085947204,75.0
1403,5.612,-0.08207220317462564,-0.06370734650391496,75.0
1404,5.616,-0.027968527009802294,-0.07314058073282297,75.0
1405,5.62,-0.009362991675220624,-0.04033525615756535,75.0
1406,5.624,-0.02468582423426584,-0.029956999444040268,75.0
1407,5.628,-0.023479667077974643,-0.041356696151267726,75.0
1408,5.632,-0.005270309907358408,0.011340279946797557,75.0
1409,5.636,-0.010358506759349642,-0.00565494036248819,75.0
1410,5.64,0.012268162363322857,-0.016295917461377356,75.0
1411,5.644,0.027941773217092236,-0.019037490639195867,75.0
1412,5.648,-0.017649671237483688,-0.010752250277297056,75.0
1413,5.652,0.0017754240038800988,-0.005803248456164167,75.0
1414,5.656,0.01955239817200307,0.011093163127471894,75.0
1415,5.66,-0.018209132612332105,0.060618332455152614,75.0
1416,5.664,0.02227265434889605,0.00892764806516211,75.0
1417,5.668,-0.007908557184844102,0.049414142729264976,75.0
1418,5.672,0.0013122091291059128,-0.0015039623463098198,75.0
1419,5.676,0.0046091225418778215,0.01891220340970928,75.0
1420,5.68,0.007288083129061182,0.010118359054288862,75.0
1421,5.684,0.010612338964344756,0.0037774503828313633,75.0
1422,5.688,0.0029311253645372503,0.02805237012829753,75.0
1423,5.692,-0.0027048298826526265,0.004719724980485444,75.0
1424,5.696,-0.014907768101943645,-0.02951627798981195,75.0
1425,5.7,-0.0060627725749246575,-0.038490877043726834,75.0
1426,5.704,-0.0324763994322352,-0.06694611905507081,75.0
1427,5.708,-0.0662713775145822,-0.009113044393429378,75.0
1428,5.712,-0.04642522559723381,-0.033172490708124114,75.0
1429,5.716,-0.06847996950220195,-0.06150261337060324,75.0
1430,5.72,-0.04824124066719843,-0.023342343155649634,75.0
1431,5.724,-0.20140388491357986,-0.19105647772135428,75.0
1432,5.728,-0.25194131373261563,-0.23439533003420174,75.0
1433,5.732,-0.19726067594306598,-0.16925815603076577,75.0
1434,5.736,-0.17841321003983285,-0.09950944287505137,75.0
1435,5.74,0.6660379203271568,0.6210332506289775,75.0
1436,5.744,0.8242811168908284,0.8230764878545246,75.0
1437,5.748,0.6418659844463432,0.5798076897672604,75.0
1438,5.752,0.278422523825157,0.28820117434934894,75.0
1439,5.756,0.029249909722895442,0.022851570289024424,75.0
1440,5.76,-0.041401145347748775,-0.0683790799611884,75.0
1441,5.764,-0.07718499925264509,-0.07030075696126348,75.0
1442,5.768,-0.12676281528849834,-0.13258422133121534,75.0
1443,5.772,-0.2931055363365097,-0.31847440502129204,75.0
1444,5.776,-0.3417476370664817,-0.3123000194129003,75.0
1445,5.78,-0.2439052759453813,-0.2671556062238987,75.0
1446,5.784,-0.16516467521240874,-0.1489991711111908,75.0
1447,5.788,-0.07303522713094864,-0.1083669675123763,75.0
1448,5.792,-0.0606552521069679,-0.07072576248072833,75.0
1449,5.796,-0.017683712615215827,-0.04007809979847654,75.0
1450,5.8,-0.039591141598647406,-0.06934394750494088,75.0
1451,5.804,-0.05611253809709967,-0.019400747096515153,75.0
1452,5.808,-0.013726722975779595,-0.027489243697882453,75.0
1453,5.812,-0.06529978659316114,-0.008340014615673208,75.0
1454,5.816,-0.018132862744684806,-0.015209160443576224,75.0
1455,5.82,0.009916565499247873,-0.000583506292657414,75.0
1456,5.824,0.0041097742477780195,-0.012820612090149374,75.0
1457,5.828,-0.017989503855589284,0.009090554504211347,75.0
1458,5.832,-0.007538490942449399,0.0567075075819724,75.0
1459,5.836,0.003581000914155661,0.054040854594570656,75.0
1460,5.84,0.0600060751410018,0.06975872367425143,75.0
1461,5.844,0.025333024759784002,0.04872373311745113,75.0
1462,5.848,0.06166641215406309,0.055824059090834155,75.0
1463,5.852,0.09699288853107338,0.05253589145477868,75.0
1464,5.856,0.08524159586570075,0.06487775592596305,75.0
1465,5.86,0.07248567976219687,0.1073936206175877,75.0
1466,5.864,0.11687072235909712,0.10708071799506769,75.0
1467,5.868,0.16064281242594736,0.15450726031062365,75.0
1468,5.872,0.16939360789710362,0.13148243396587736,75.0
1469,5.876,0.18219547090160423,0.16580780242822554,75.0
1470,5.88,0.21511414643161,0.1419985288383897,75.0
1471,5.884,0.18827169619595607,0.19562625900855524,75.0
1472,5.888,0.18486451526507017,0.1802140320444263,75.0
1473,5.892,0.21212239529870522,0.19281189157789247,75.0
1474,5.896,0.19511443834720005,0.19530807995360286,75.0
1475,5.9,0.21995020457281853,0.22824356413763314,75.0
1476,5.904,0.2915009736312335,0.21882105675028432,75.0
1477,5.908,0.24042417663523694,0.202613366721479,75.0
1478,5.912,0.2741836539723926,0.24921539680030416,75.0
1479,5.916,0.2286412185639525,0.24652580635081764,75.0
1480,5.92,0.2354137326060061,0.256593063927877,75.0
1481,5.924,0.24790523580343318,0.28280181794606407,75.0
1482,5.928,0.26187976007578473,0.2697260779688563,75.0
1483,5.932,0.25920430843615816,0.2523955622558355,75.0
1484,5.936,0.22813102505509672,0.23328953845281306,75.0
1485,5.94,0.2595065548624691,0.2432184834189912,75.0
1486,5.944,0.25511022221315477,0.22634968713417175,75.0
1487,5.948,0.23596361403957508,0.21151430253227263,75.0
1488,5.952,0.20277521104822654,0.19943584742214276,75.0
1489,5.956,0.21546639382674618,0.15876654157206702,75.0
1490,5.96,0.20686987046774855,0.15580862336720377,75.0
1491,5.964,0.16352051908636356,0.14643577810597747,75.0
1492,5.968,0.1672337553860377,0.17433802275280136,75.0
1493,5.972,0.1740317934440976,0.16696055745849725,75.0
1494,5.976,0.17902935615749624,0.1805894553622557,75.0
1495,5.98,0.14569297344974014,0.1479682949184333,75.0
1496,5.984,0.12233896272743,0.16880347775016374,75.0
1497,5.988,0.10505624039730536,0.09145286469962755,75.0
1498,5.992,0.10377253103978236,0.07083672274795991,75.0
1499,5.996,0.15023859080959778,0.10999848089321194,75.0
1500,6.0,0.08357499493199307,0.08747149817139992,75.0
1501,6.004,0.05839035245861357,0.08811753084215826,75.0
1502,6.008,0.05902300746759406,0.05119316856472669,75.0
1503,6.012,0.0455420588384731,0.08397812810904257,75.0
1504,6.016,0.046763337530519485,0.07578982353352667,75.0
1505,6.02,0.04924607923495848,0.0113559080137509,75.0
1506,6.024,0.05910935923514042,0.011295236125570502,75.0
1507,6.028,0.05518287404363917,0.04108273087445816,75.0
1508,6.032,0.00946712391370561,-0.007704746877110546,75.0
1509,6.036,0.024731303936983553,-0.03425065880053519,75.0
1510,6.04,0.003639452801065391,-0.030519643927691326,75.0
1511,6.044,0.00806371128977202,0.03231815141816587,75.0
1512,6.048,0.019633789235216637,0.021409237694808663,75.0
1513,6.052,0.048250889878898404,0.037763179835707324,75.0
1514,6.056,0.00028522134088799876,0.025602194596541,75.0
1515,6.06,0.0082830688976204,0.04683100627208703,75.0
1516,6.064,0.003760800193305506,0.005565481654072659,75.0
1517,6.068,0.032512012886473415,0.028457608025659338,75.0
1518,6.072,-0.003408128713817258,0.06308468307201331,75.0
1519,6.076,0.05832083905461635,0.01634770674338048,75.0
1520,6.08,0.030481395343006857,0.005891225238500611,75.0
1521,6.084,0.04325896541463798,-0.0038873484968440543,75.0
1522,6.088,0.010257993109886366,-0.02277819572241936,75.0
1523,6.092,0.044595660071094535,0.0343894563080319,75.0
1524,6.096,0.024578070430307634,0.0364779224234169,75.0
1525,6.1,0.015166976693902436,-0.009347662979807726,75.0
1526,6.104,0.01888215132147934,-0.0003757304973065839,75.0
1527,6.108,0.027712904386357172,0.04093741457521404,75.0
1528,6.112,0.015930210588684896,0.006257569600762963,75.0
1529,6.116,0.014796566137617054,0.045205353253900404,75.0
1530,6.12,0.047785215097933466,0.05867952563125904,75.0
1531,6.124,0.026784994242235658,0.022724153610526286,75.0
1532,6.128,0.031399243993893225,0.025974534616132704,75.0
1533,6.132,0.024224374074491958,0.04348609412448111,75.0
1534,6.136,0.0036335369330251607,0.03888003773831117,75.0
1535,6.14,0.03990659039166559,0.05142561335325073,75.0
1536,6.144,0.062073085452884987,0.06452827728998466,75.0
1537,6.148,0.0421842939178823,0.031094526966400676,75.0
1538,6.152,0.023966742818626832,0.030635528530311207,75.0
1539,6.156,0.056670363893596545,0.028778896414319754,75.0
1540,6.16,0.057298084887958,0.053200796412004175,75.0
1541,6.164,0.05021028111874888,0.04657525884725356,75.0
1542,6.168,0.04184097701888952,0.06864916300043257,75.0
1543,6.172,0.020110663403342412,0.05258470068687726,75.0
1544,6.176,0.030150976677693602,0.06381406576415291,75.0
1545,6.18,0.03288367805294744,0.05119395325022822,75.0
1546,6.184,0.07069612119857777,0.04251266203304191,75.0
1547,6.188,0.036610650179650824,0.055391304064699005,75.0
1548,6.192,0.06102352545467756,0.046555418444062885,75.0
1549,6.196,0.05359822256619834,0.06413864523809358,75.0
1550,6.2,0.03933351737734324,0.02337482305968009,75.0
1551,6.204,0.07078631499175428,0.03862973873736308,75.0
1552,6.208,0.07880975045445172,0.03541259659765652,75.0
1553,6.212,0.04985627180953918,0.048828060885235454,75.0
1554,6.216,0.047487295972945674,0.09829069110463715,75.0
1555,6.22,0.049017216193037796,0.0236502406788372,75.0
1556,6.224,0.043768454945001825,0.049591582240481054,75.0
1557,6.228,0.038503578509016013,0.02876701293549517,75.0
1558,6.232,0.05404315680076628,0.019862875375717896,75.0
1559,6.236,0.06540329400946819,0.08568873141898113,75.0
1560,6.24,0.07088482683023259,0.027398842156659834,75.0
1561,6.244,0.029198296097139,0.04252295883690017,75.0
1562,6.248,0.03826183546913328,0.054498847902249875,75.0
1563,6.252,0.07793174427772552,0.05996879626738773,75.0
1564,6.256,0.08228620391792339,0.07682864389028332,75.0
1565,6.26,0.0669924675699046,0.08684652551625655,75.0
1566,6.264,0.07610107006653777,0.03003348721971243,75.0
1567,6.268,0.06543836856411753,0.06094852276522635,75.0
1568,6.272,0.05963064586053732,0.07835959573750442,75.0
1569,6.276,0.09031986338173303,0.0726208699912722,75.0
1570,6.28,0.06891199193892136,0.05566977798279895,75.0
1571,6.284,0.09261279169376525,0.03244392458943569,75.0
1572,6.288,0.06488798901213355,0.04548683157031145,75.0
1573,6.292,0.05517692489979783,0.12935351206976184,75.0
1574,6.296,0.0510749028682623,0.04608764577781682,75.0
1575,6.3,0.06578907913304667,0.08455336439507355,75.0
1576,6.304,0.07710008498498903,0.09104426683055136,75.0
1577,6.308,0.06068313016218719,0.11828986260759712,75.0
1578,6.312,0.09950440542083866,0.06983370698471483,75.0
1579,6.316,0.0678222743669327,0.08075541942650516,75.0
1580,6.32,0.075833886446805,0.08599014123097412,75.0
1581,6.324,0.06637952362804915,0.05703674934145419,75.0
1582,6.328,0.0957671645290859,0.13320099124053972,75.0
1583,6.332,0.09423449348306527,0.11801886334772221,75.0
1584,6.336,0.058436528419296516,0.10369776168716272,75.0
1585,6.34,0.07271463042406429,0.08857441736654921,75.0
1586,6.344,0.09775945820600111,0.09866994494796368,75.0
1587,6.348,0.07823872115988496,0.07331092556788674,75.0
1588,6.352,0.07540014234919948,0.09731244380981213,75.0
1589,6.356,0.057636175802781055,0.10421732769513387,75.0
1590,6.36,0.058642263558559726,0.09409654139040247,75.0
1591,6.364,0.0811545513958454,0.09489297137789629,75.0
1592,6.368,0.09477279766648877,0.043034342415638666,75.0
1593,6.372,0.07944878661733751,0.08502643342536197,75.0
1594,6.376,0.09568273776948404,0.08238186968131164,75.0
1595,6.38,0.09871795768187593,0.13507460987035466,75.0
1596,6.384,0.08701620482770996,0.11918039464337889,75.0
1597,6.388,0.12484430775970021,0.07242199960644419,75.0
1598,6.392,0.07293196530766202,0.05457657479925495,75.0
1599,6.396,0.1297761560049577,0.09534025966803396,75.0
1600,6.4,0.07372987553353223,0.10621228248011501,75.0
1601,6.404,0.09338393621232711,0.1075929840598664,75.0
1602,6.408,0.11508154176843072,0.09630393470852344,75.0
1603,6.412,0.13281295891032266,0.09870219051829637,75.0
1604,6.416,0.14289462147554183,0.10261099077035599,75.0
1605,6.42,0.10008749169068543,0.14801135713643582,75.0
1606,6.424,0.14442102092710613,0.1341683469664762,75.0
1607,6.428,0.1462885901745886,0.10578505054116509,75.0
1608,6.432,0.13290081877110485,0.16262624806316547,75.0
1609,6.436,0.15163061317917864,0.1414233374876436,75.0
1610,6.44,0.20961905399638794,0.1942657882033719,75.0
1611,6.444,0.14915543918113433,0.18445607250945076,75.0
1612,6.448,0.1727838361219645,0.17131173514756018,75.0
1613,6.452,0.1768346498136383,0.20235402352415335,75.0
1614,6.456,0.222253891093188,0.15675752585387046,75.0
1615,6.46,0.18955665412532657,0.14815057065137954,75.0
1616,6.464,0.16628839802924097,0.19245336840019778,75.0
1617,6.468,0.20179334179965702,0.1614723864318113,75.0
1618,6.472,0.16811142086206213,0.18304878409807612,75.0
1619,6.476,0.1959529963848197,0.17168968596627324,75.0
1620,6.48,0.16782211895240604,0.1611859984255601,75.0
1621,6.484,0.15887836608858477,0.14262434228218998,75.0
1622,6.488,0.16331298105540695,0.1662553622967744,75.0
1623,6.492,0.173349579881784,0.12709719966171887,75.0
1624,6.496,0.1638844768940727,0.17106692797800194,75.0
1625,6.5,0.1407176591675694,0.1175197744878312,75.0
1626,6.504,0.13287544052062447,0.13225582450245194,75.0
1627,6.508,0.1283916592332263,0.1307190879741014,75.0
1628,6.512,0.11622969423721334,0.11037338729073946,75.0
1629,6.516,0.09729897484306956,0.11394097820038575,75.0
1630,6.52,0.03457078666671123,0.047428671146672714,75.0
1631,6.524,-0.06310770597011403,-0.0343702844384925,75.0
1632,6.528,-0.09823079064758082,-0.056756535066650536,75.0
1633,6.532,-0.05555173816261519,-0.043357157241840666,75.0
1634,6.536,0.3979708069688984,0.44649313446303,75.0
1635,6.54,0.7997660028105286,0.7785828543184171,75.0
1636,6.544,0.9921544931338653,0.957739450124496,75.0
1637,6.548,0.7837055945843413,0.7785633245107564,75.0
1638,6.552,0.39891941245170015,0.40935889936028,75.0
1639,6.556,0.18750749490874197,0.19672428977588596,75.0
1640,6.56,0.09078393596030146,0.07504414382190856,75.0
1641,6.564,0.07351540308261967,0.059548419572656296,75.0
1642,6.568,0.011110650707861089,-0.03396200398443313,75.0
1643,6.572,-0.1150217493438741,-0.12244542754794696,75.0
1644,6.576,-0.15179960425569997,-0.16882052628055447,75.0
1645,6.58,-0.13455023877287095,-0.10095372917786857,75.0
1646,6.584,-0.017664401764681145,-0.028103973591480178,75.0
1647,6.588,0.07900532554585893,0.06391537731733332,75.0
1648,6.592,0.09971445331210302,0.06612488235802291,75.0
1649,6.596,0.06294284855345705,0.09223111143385375,75.0
1650,6.6,0.0863026618250818,0.11478529444385958,75.0
1651,6.604,0.06151030718251145,0.07026352430012538,75.0
1652,6.608,0.09470568036100938,0.10446550631888298,75.0
1653,6.612,0.11151031103328864,0.07877758970096498,75.0
1654,6.616,0.10750752822992285,0.10894970989378186,75.0
1655,6.62,0.11798359824667058,0.13628981373535462,75.0
1656,6.624,0.17391686442896823,0.11916137516979561,75.0
1657,6.628,0.1418762527472115,0.1445232697507163,75.0
1658,6.632,0.12748699180542566,0.1598488658367641,75.0
1659,6.636,0.14981613295733373,0.17168020443872564,75.0
1660,6.64,0.15483266429971745,0.15140742493327336,75.0
1661,6.644,0.19298306576432311,0.1477521427777203,75.0
1662,6.648,0.21054681671530956,0.14978144558607404,75.0
1663,6.652,0.18859078372014454,0.1948570026062923,75.0
1664,6.656,0.2536548864060905,0.19994800906756213,75.0
1665,6.66,0.2080146755640731,0.23835801538566265,75.0
1666,6.664,0.20938331215953687,0.23662628432435487,75.0
1667,6.668,0.26200335524306567,0.23001647741316975,75.0
1668,6.672,0.260537168527063,0.2613149092289868,75.0
1669,6.676,0.2691909267055939,0.2806339343719531,75.0
1670,6.68,0.29599687850213235,0.23470146845803058,75.0
1671,6.684,0.23672884151327114,0.25357894404214604,75.0
1672,6.688,0.29512106742873057,0.26863105983605046,75.0
1673,6.692,0.34133903112780384,0.3393201901982696,75.0
1674,6.696,0.353835831934619,0.29761282704192527,75.0
1675,6.7,0.3157723759365521,0.3104924573949783,75.0
1676,6.704,0.3409102492793094,0.3578438434180039,75.0
1677,6.708,0.3275692251931178,0.3247509343154036,75.0
1678,6.712,0.3345984140571641,0.3213186657160303,75.0
1679,6.716,0.3559268825087295,0.3486319111854912,75.0
1680,6.72,0.346847166168778,0.34063563690102466,75.0
1681,6.724,0.34190479678072466,0.3562429981533985,75.0
1682,6.728,0.3433950422256121,0.3417832290723226,75.0
1683,6.732,0.32695962036363063,0.3182707431651357,75.0
1684,6.736,0.34058264468460975,0.3329990018388205,75.0
1685,6.74,0.3498476181214853,0.31302885776670913,75.0
1686,6.744,0.301139794128663,0.3311218679393731,75.0
1687,6.748,0.2638593717641911,0.2874993565013352,75.0
1688,6.752,0.274627842069106,0.2870979844734213,75.0
1689,6.756,0.3008212448948129,0.28734450052294247,75.0
1690,6.76,0.276998889163261,0.26352715271086197,75.0
1691,6.764,0.2783114058317815,0.2516724235462208,75.0
1692,6.768,0.2394596101715051,0.24379304174029395,75.0
1693,6.772,0.22375493950055034,0.22256775613601842,75.0
1694,6.776,0.24557723798352007,0.2362061798029364,75.0
1695,6.78,0.19288060424398687,0.20441467692534854,75.0
1696,6.784,0.21371796303525803,0.2236924834214741,75.0
1697,6.788,0.17254111188033064,0.15613731214396132,75.0
1698,6.792,0.17379555925718723,0.17757926637538818,75.0
1699,6.796,0.1464014169810288,0.1513385041580413,75.0
1700,6.8,0.13160844727737903,0.13432302612772978,75.0
1701,6.804,0.11213154225939119,0.09468102836258556,75.0
1702,6.808,0.12202453412440703,0.12551961694934605,75.0
1703,6.812,0.11248841859670161,0.13182797372603833,75.0
1704,6.816,0.08251493750532841,0.1111314626936168,75.0
1705,6.82,0.09886184371077879,0.05076999042406288,75.0
1706,6.824,0.09168678006904592,0.05422375696907217,75.0
1707,6.828,0.0737201983139927,0.0794759520870258,75.0
1708,6.832,0.03131067688630621,0.06780800501054583,75.0
1709,6.836,0.02976175195743165,0.060530133482361526,75.0
1710,6.84,0.010213024070139696,0.04370315865772608,75.0
1711,6.844,0.029246485014800486,0.02526816111524961,75.0
1712,6.848,0.019747614759795057,0.06305043833280342,75.0
1713,6.852,0.017690706103462385,0.046384723835863534,75.0
1714,6.856,0.003438357879149482,0.07237418149606158,75.0
1715,6.86,0.03486563044075288,0.04979764731222079,75.0
1716,6.864,0.07182903575252703,0.043651510330131746,75.0
1717,6.868,0.058679785161756454,0.02519126520701341,75.0
1718,6.872,0.020942363657794054,0.03348410269427585,75.0
1719,6.876,-0.012326989998917307,0.0534319680939788,75.0
1720,6.88,0.06054882802442701,0.04487088213794541,75.0
1721,6.884,0.032653337252984714,0.048122807043571574,75.0
1722,6.888,0.06536693558167953,0.015408591757274433,75.0
1723,6.892,0.014862196936578854,0.013655934543167457,75.0
1724,6.896,0.05976777050625753,0.05344889278373716,75.0
1725,6.9,0.010259989309473102,0.03174267954135973,75.0
1726,6.904,0.04555670675833875,0.038287491517903297,75.0
1727,6.908,0.02361519411530548,0.012059131876128395,75.0
1728,6.912,0.013641200400729032,0.02070731107581762,75.0
1729,6.916,0.022016196883584728,-0.010733271749178803,75.0
1730,6.92,-0.0018446902864234383,0.05040304387578781,75.0
1731,6.924,0.01375171726702209,0.016861941444279445,75.0
1732,6.928,0.019152788316801214,0.011500102005376208,75.0
1733,6.932,0.04550017705896556,0.03801298832104365,75.0
1734,6.936,-0.014172148023878959,0.018105556465006122,75.0
1735,6.94,-0.006956574482383896,-0.004501821785179184,75.0
1736,6.944,-0.0017084606933281666,0.03141544650060092,75.0
1737,6.948,0.017163331130676203,0.03848087975370382,75.0
1738,6.952,0.001925810864528605,0.03990171203962075,75.0
1739,6.956,0.01719167273136972,0.03415887512286821,75.0
1740,6.96,-0.00562831480802464,0.0697527879621706,75.0
1741,6.964,-0.011439474001025305,-0.010825502191056872,75.0
1742,6.968,0.021989075203499464,0.030177552830614775,75.0
1743,6.972,0.010453145711335852,0.013557899050665194,75.0
1744,6.976,0.005229914599409411,-0.004100745769810422,75.0
1745,6.98,-0.01064293803501021,0.03431078179802378,75.0
1746,6.984,0.010095673905597081,0.008728902954152781,75.0
1747,6.988,-0.00895244542668161,-0.00996528309869204,75.0
1748,6.992,-0.012509938500418948,-0.022273525409429226,75.0
1749,6.996,0.023629424323177654,-0.006639448073987015,75.0
1750,7.0,-0.00010683395672158901,-0.005708634802613108,75.0
1751,7.004,0.003099759912407206,0.013828785182128907,75.0
1752,7.008,6.854433943823659e-05,-0.0036014883652159472,75.0
1753,7.012,-0.0010000146696557235,-0.00595578551895635,75.0
1754,7.016,-0.018291891214886738,-0.006281934902528213,75.0
1755,7.02,-0.00833618587870878,0.007956310911637133,75.0
1756,7.024,-0.019673504029709736,0.0061758344360675985,75.0
1757,7.028,0.020661273665127666,-0.0014585466800808463,75.0
1758,7.032,-0.013811304508449912,0.000383777050872461,75.0
1759,7.036,0.0026749734799194342,0.04026374267675599,75.0
1760,7.04,0.001610732425644168,-0.0011251096314786172,75.0
1761,7.044,-0.006743692334716145,-0.03028511271919106,75.0
1762,7.048,0.013320033735473377,-0.05304308242909574,75.0
1763,7.052,-0.022999403210135765,0.0056633629257583995,75.0
1764,7.056,-0.014660309207046756,0.02004521657681163,75.0
1765,7.06,-0.01238252376947081,-0.006637343638823839,75.0
1766,7.064,-0.013360111704583913,0.00718326525961215,75.0
1767,7.068,-0.014630230619084174,0.0073603427066674665,75.0
1768,7.072,-0.008129864619222393,-0.006962427224896354,75.0
1769,7.076,-0.009285441723783153,-0.02936187174846187,75.0
1770,7.08,-0.006412728894940049,-0.05036347974629779,75.0
1771,7.084,-0.028266240586913176,-0.018859925164051647,75.0
1772,7.088,-0.025452854607678873,-0.019427147608297703,75.0
1773,7.092,0.0009096298555708178,-0.05539243321071597,75.0
1774,7.096,-0.050756684627490854,-0.029804602995402153,75.0
1775,7.1,-0.012336823120824368,-0.01531255857176341,75.0
1776,7.104,-0.061129938164363816,-0.036124915451985096,75.0
1777,7.108,-0.007591128367379266,-0.005765731684436306,75.0
1778,7.112,-0.0573250611630098,-0.03478228878296476,75.0
1779,7.116,-0.0014487452691803605,-0.018012963190887975,75.0
1780,7.12,-0.02873778464912556,-0.02111549146428727,75.0
1781,7.124,-0.046020829381950644,-0.04945265496276968,75.0
1782,7.128,-0.03156024956027807,-0.03593521674569562,75.0
1783,7.132,-0.05697293145524064,-0.0670668215526492,75.0
1784,7.136,-0.05518089452082349,-0.04268430980325479,75.0
1785,7.14,-0.05943629231555298,-0.06681633062727058,75.0
1786,7.144,-0.04903915959723186,-0.038091450486089105,75.0
1787,7.148,-0.04575281542238884,-0.06388403406324504,75.0
1788,7.152,-0.04209930715616381,-0.035417753122650365,75.0
1789,7.156,-0.028337716302560545,-0.018886773245367222,75.0
1790,7.16,-0.05269269246423569,-0.022983401536369557,75.0
1791,7.164,-0.03719481878932657,-0.042307798748207295,75.0
1792,7.168,-0.07937329270890559,-0.008040774292920777,75.0
1793,7.172,-0.05665319589892874,-0.03220101464275788,75.0
1794,7.176,-0.050760538109729164,-0.08630899517177584,75.0
1795,7.18,-0.03166807808983358,-0.06538263026363472,75.0
1796,7.184,-0.05816239114097542,-0.08476518391248156,75.0
1797,7.188,-0.06680532618565774,-0.05732446697783555,75.0
1798,7.192,-0.037909607507961025,-0.04259885846587949,75.0
1799,7.196,-0.029349630998294893,-0.058124662333417516,75.0
1800,7.2,-0.07055999638435811,-0.046515465888178946,75.0
1801,7.204,-0.061100493367979576,-0.011625526111975199,75.0
1802,7.208,-0.04556773410657465,-0.020081482677190073,75.0
1803,7.212,-0.04196235504170371,-0.02636895392718491,75.0
1804,7.216,-0.003873806518474797,-0.0061150093307992676,75.0
1805,7.22,-0.03410482968500474,-0.03287671787193888,75.0
1806,7.224,-0.019560909721273567,-0.04101699412081555,75.0
1807,7.228,0.014056689635877565,-0.017462541526580586,75.0
1808,7.232,0.04293682560919123,-0.0033743517951213995,75.0
1809,7.236,-0.001640938656961475,-0.014499580970243432,75.0
1810,7.24,0.010981882647739473,-0.004278562455711065,75.0
1811,7.244,0.027111327611960535,0.039604784189724684,75.0
1812,7.248,0.02013164996962525,-0.002896685493891772,75.0
1813,7.252,0.032017821733857525,-0.0013949230869900048,75.0
1814,7.256,0.010228021518421448,0.0236254024201845,75.0
1815,7.26,0.037606970347361234,-0.0017439999225656753,75.0
1816,7.264,0.03747928214385332,-0.01619106746204831,75.0
1817,7.268,0.020716774757224037,0.053247400380787326,75.0
1818,7.272,0.03603250703092114,0.017876879859147682,75.0
1819,7.276,0.010704960049833283,0.025731611585747098,75.0
1820,7.28,0.018128454958378948,0.027959749905624175,75.0
1821,7.284,0.013249141928297223,-0.030810611276517054,75.0
1822,7.288,0.0182217939209691,0.02421784660367407,75.0
1823,7.292,-0.01527344248060017,-0.015421951505903852,75.0
1824,7.296,-0.013652703513986234,-0.01863036282359,75.0
1825,7.3,-0.017365731269081003,0.0016511999168900872,75.0
1826,7.304,-0.012618392150760422,-0.07596816641938509,75.0
1827,7.308,-0.045088214868904755,-0.03592332755450328,75.0
1828,7.312,-0.020707209687485476,-0.004715916209301299,75.0
1829,7.316,-0.09043048004270002,-0.07303269151355314,75.0
1830,7.32,-0.07652602496316803,-0.09732383313109688,75.0
1831,7.324,-0.2265382758555152,-0.19828042829885445,75.0
1832,7.328,-0.2506812741489356,-0.24250945641369273,75.0
1833,7.332,-0.23169002119231139,-0.20972685312272688,75.0
1834,7.336,-0.12818668122604288,-0.13314664656323602,75.0
1835,7.34,0.629884630814919,0.5723576860038624,75.0
1836,7.344,0.805789246012168,0.7797424111907345,75.0
1837,7.348,0.6672914970156838,0.6301913359035516,75.0
1838,7.352,0.2479003967819458,0.21441233454290679,75.0
1839,7.356,0.005995153554408773,0.04775744181362841,75.0
1840,7.36,-0.07568995066902606,-0.07455957752015871,75.0
1841,7.364,-0.1028019511972846,-0.1505431217210121,75.0
1842,7.368,-0.19047863447245975,-0.1693206040546062,75.0
1843,7.372,-0.25672981624219504,-0.24714168410202564,75.0
1844,7.376,-0.34999221560642263,-0.3339073627132848,75.0
1845,7.38,-0.32711746458293983,-0.30462550652789144,75.0
1846,7.384,-0.18641121289514503,-0.15872652052014338,75.0
1847,7.388,-0.12341281196613142,-0.11790154465651397,75.0
1848,7.392,-0.0767524719021659,-0.08142798659703583,75.0
1849,7.396,-0.06922043131818514,-0.09169891661629594,75.0
1850,7.4,-0.08412524042336311,-0.05026754608758807,75.0
1851,7.404,-0.07095424950263375,-0.06041550388827623,75.0
1852,7.408,-0.0893418733450112,-0.08129202716135497,75.0
1853,7.412,-0.06702305908100228,-0.0846817230147451,75.0
1854,7.416,-0.06591404312767735,-0.07025491066738783,75.0
1855,7.42,-0.0817035441044723,-0.06166817490285982,75.0
1856,7.424,-0.04403019805903971,-0.05512081829212922,75.0
1857,7.428,-0.005183879786318775,-0.05521453972300266,75.0
1858,7.432,-0.013038994354737227,-0.011876915093662732,75.0
1859,7.436,-0.03213820544070062,0.00972710745945349,75.0
1860,7.44,0.0043240658531003735,-0.02525007030627132,75.0
1861,7.444,0.010741867732968965,-0.013287543072754702,75.0
1862,7.448,-0.019614007059939223,-0.032730784968239064,75.0
1863,7.452,0.01916864381169386,0.015275364245585338,75.0
1864,7.456,0.006411711293983518,0.04497600373911924,75.0
1865,7.46,0.0504104572567129,0.04043842773594166,75.0
1866,7.464,0.07693104170256758,0.07014964191217975,75.0
1867,7.468,0.08496509964607213,0.1289062337825128,75.0
1868,7.472,0.09005472530840118,0.06448130526736383,75.0
1869,7.476,0.11069149369197043,0.08915738335705439,75.0
1870,7.48,0.14186640692248728,0.10580903950318639,75.0
1871,7.484,0.15305976740365423,0.1448824772976371,75.0
1872,7.488,0.131508116570845,0.12669035468311773,75.0
1873,7.492,0.17254717675597714,0.13476567125673064,75.0
1874,7.496,0.14891788878729534,0.12107675319383703,75.0
1875,7.5,0.1693823027451967,0.18899291749869443,75.0
1876,7.504,0.17363722839882753,0.1502511834305878,75.0
1877,7.508,0.153753933618776,0.1577020049433213,75.0
1878,7.512,0.1989959806727365,0.13451687163998252,75.0
1879,7.516,0.2240211683447156,0.1757025944136428,75.0
1880,7.52,0.21865969145644945,0.1933361397509231,75.0
1881,7.524,0.1799484477702031,0.17684177567432122,75.0
1882,7.528,0.15273787607235748,0.18441383984501414,75.0
1883,7.532,0.17268022060051677,0.1529422277288558,75.0
1884,7.536,0.21123641783635239,0.1676505975795913,75.0
1885,7.54,0.15535601230130086,0.14998918403384032,75.0
1886,7.544,0.19733376061522007,0.17730993326623135,75.0
1887,7.548,0.14969897460447296,0.15633554937999386,75.0
1888,7.552,0.13880382651296533,0.1490793419860745,75.0
1889,7.556,0.12227816638935701,0.15506061993224093,75.0
1890,7.56,0.11831311352732954,0.12336178269543009,75.0
1891,7.564,0.1256811715089001,0.1281740917163676,75.0
1892,7.568,0.11527119060385117,0.10916698584939338,75.0
1893,7.572,0.10289153078044984,0.10035833983875828,75.0
1894,7.576,0.06965799810028314,0.06763618542356223,75.0
1895,7.58,0.07249221954157589,0.09036790487533782,75.0
1896,7.584,0.051565767577308005,0.059329741778518325,75.0
1897,7.588,0.04565963975161383,0.012712850276648853,75.0
1898,7.592,0.05444737491583318,0.017540466386310228,75.0
1899,7.596,0.0054586916203131315,0.0633789236620583,75.0
1900,7.6,-0.0074152883735164885,0.03255133148901568,75.0
1901,7.604,-0.03302974770556808,-0.024235630362920993,75.0
1902,7.608,-0.03783556613982286,-0.01190315750455408,75.0
1903,7.612,-0.02397770676650058,-0.022032320948186544,75.0
1904,7.616,-0.04963272188211573,-0.00040108100546639103,75.0
1905,7.62,-0.02915411564852157,-0.06121325541155531,75.0
1906,7.624,-0.06617177228728412,-0.012447748134690729,75.0
1907,7.628,-0.03760266637052671,-0.05498760833945977,75.0
1908,7.632,-0.052512026898390435,-0.03554463213376703,75.0
1909,7.636,-0.10232691958214403,-0.04773917338785887,75.0
1910,7.64,-0.08191245078506078,-0.08127254034324634,75.0
1911,7.644,-0.07130308538714984,-0.08108634674063675,75.0
1912,7.648,-0.041837889642377515,-0.0930288168640998,75.0
1913,7.652,-0.08336860938726302,-0.08344839705404326,75.0
1914,7.656,-0.07488256081273044,-0.06338582381008667,75.0
1915,7.66,-0.08257594508423573,-0.05029267598778553,75.0
1916,7.664,-0.10195913761833515,-0.032214529950152275,75.0
1917,7.668,-0.1223569347007599,-0.10340408681926784,75.0
1918,7.672,-0.08507137133625714,-0.0649557773159666,75.0
1919,7.676,-0.0745697790395014,-0.09059545218220108,75.0
1920,7.68,-0.07660788672479829,-0.06717436605919484,75.0
1921,7.684,-0.10845339027428977,-0.09450463558151104,75.0
1922,7.688,-0.07607590320521103,-0.08491712802356584,75.0
1923,7.692,-0.07715984670431224,-0.07122021865624044,75.0
1924,7.696,-0.08075773847796193,-0.058706526668716855,75.0
1925,7.7,-0.07728568281823071,-0.07768318245652384,75.0
1926,7.704,-0.048925346271908025,-0.04871477940396585,75.0
1927,7.708,-0.08210292195918575,-0.09959074182200325,75.0
1928,7.712,-0.10921945283648664,-0.08990532941248924,75.0
1929,7.716,-0.08275463495539949,-0.07352126486888683,75.0
1930,7.72,-0.07940288166610837,-0.09239713121325234,75.0
1931,7.724,-0.08879026582830654,-0.05313197413830357,75.0
1932,7.728,-0.07141509855683434,-0.020037424950578683,75.0
1933,7.732,-0.07081059951663776,-0.05271701727411251,75.0
1934,7.736,-0.07429408149532399,-0.06655488936202601,75.0
1935,7.74,-0.05598411705960659,-0.03914743404841466,75.0
1936,7.744,-0.09297255154393175,-0.09508583130813993,75.0
1937,7.748,-0.07716919453038097,-0.030513588397677028,75.0
1938,7.752,-0.046410426915355636,-0.06221557783125874,75.0
1939,7.756,-0.05346322344791409,-0.0709480000074445,75.0
1940,7.76,-0.05406544421763004,-0.04330056721056646,75.0
1941,7.764,-0.05247967509926299,-0.07527145273138715,75.0
1942,7.768,-0.06538996160756401,-0.06698590082573673,75.0
1943,7.772,-0.040390220628579394,-0.03834571501838823,75.0
1944,7.776,-0.059590025797599575,-0.10183465232186385,75.0
1945,7.78,-0.038422673503728785,-0.08220472981974133,75.0
1946,7.784,-0.05803251590222075,-0.03353151255252671,75.0
1947,7.788,-0.08136677848013865,-0.04297904228732051,75.0
1948,7.792,-0.08498853947365924,-0.09127421426240637,75.0
1949,7.796,-0.048387306266698876,-0.06215353932782101,75.0
1950,7.8,-0.050209610637837104,-0.06255210471464262,75.0
1951,7.804,-0.07295671455999532,-0.08512209195266485,75.0
1952,7.808,-0.07758916660780327,-0.05005199202066243,75.0
1953,7.812,-0.051347365760950885,-0.059382703326319765,75.0
1954,7.816,-0.028606662342072715,-0.029812342513400935,75.0
1955,7.82,-0.0677781381176535,-0.03607173991579433,75.0
1956,7.824,-0.037751370527742883,-0.04214002783319757,75.0
1957,7.828,-0.005454670558772665,-0.011210796664585352,75.0
1958,7.832,-0.07875927155604126,-0.04162369669295168,75.0
1959,7.836,-0.04863703097297624,-0.030769919248463916,75.0
1960,7.84,-0.01364505889279396,-0.046232741315833444,75.0
1961,7.844,-0.07751698328987362,-0.07787115575316847,75.0
1962,7.848,-0.05845330625666243,-0.031095921658039996,75.0
1963,7.852,-0.05539120963312691,-0.05712420342111862,75.0
1964,7.856,-0.030826250102630903,-0.046717266960132696,75.0
1965,7.86,-0.07028813103617479,0.023822282777336678,75.0
1966,7.864,-0.05858314900375604,-0.018842166484601013,75.0
1967,7.868,-0.0343517718648014,-0.07718706717987264,75.0
1968,7.872,-0.034621831555757376,-0.046407766776136235,75.0
1969,7.876,-0.09573733842090676,-0.028530144619106634,75.0
1970,7.88,-0.028757222129706828,-0.04616043838174348,75.0
1971,7.884,-0.06837078426938017,-0.023593310225660722,75.0
1972,7.888,-0.02311326504977818,-0.0008041122068337237,75.0
1973,7.892,0.00501047982670856,0.00997162419813903,75.0
1974,7.896,-0.010841945144585549,-0.018575402729214468,75.0
1975,7.9,-0.04812772761685572,0.00024967720396497784,75.0
1976,7.904,-0.015254936376972231,-0.027489072260160476,75.0
1977,7.908,-0.057706406348629155,-0.02881695280884415,75.0
1978,7.912,-0.02741132526928371,-0.009728586816700744,75.0
1979,7.916,-0.009930399168658288,0.0005615233034788167,75.0
1980,7.92,-0.03482019118328486,-0.03289981354259418,75.0
1981,7.924,-0.037442297491349,-0.05882566220136296,75.0
1982,7.928,0.01023976272813311,-0.01691720250845002,75.0
1983,7.932,-0.004372022876253735,-0.019245698206050946,75.0
1984,7.936,-0.007410736412905245,-0.02243486275037571,75.0
1985,7.94,0.010239037049026933,-0.044548760871455054,75.0
1986,7.944,0.010987688654595613,-0.010701571762034115,75.0
1987,7.948,0.0013775240449934154,-0.019540728143256345,75.0
1988,7.952,-0.006420435547111222,-0.04754261836023068,75.0
1989,7.956,-0.006042501110454234,-0.014846142478322884,75.0
1990,7.96,0.020826913243291258,4.585844088390825e-05,75.0
1991,7.964,-0.031085434907688978,-0.013025915509750451,75.0
1992,7.968,-0.004710651801436698,-0.017437705866535293,75.0
1993,7.972,-0.010063700122614845,0.020817884029904477,75.0
1994,7.976,-0.01717077228841559,-0.03262759961211612,75.0
1995,7.98,-0.024790522542685968,0.004790348676123859,75.0
1996,7.984,0.002907201282291078,0.014295816828205002,75.0
1997,7.988,0.004551306413042355,-0.03212201105635376,75.0
1998,7.992,-0.02168143792472012,-0.008433842883629888,75.0
1999,7.996,-0.012887043878986128,-0.008196319444949978,75.0
