ecg_amplitude
0.008352836480266189
0.0312656972850224
-0.02786136422483096
0.030599726934046022
0.07776455226592913
0.033287691471851615
0.04514239631599605
0.07101591688884452
0.07787035231341709
0.07183969852888965
0.06731631840798996
0.10848671641378307
0.11523902253819165
0.10576105328956736
0.14131314205303558
0.09937147802025668
0.10229208644373558
0.1283264781759201
0.15223208277307276
0.05604007583351253
0.1060960932174781
0.10237407907182498
0.1296959883569127
0.08878883519407539
0.07192916283095607
0.07971222522505832
0.01894818398865147
0.05026599757226169
-0.02459613420644869
-0.06383818341664178
-0.144792703423658
-0.12379596693557891
0.4018383672143891
0.8332541413917764
0.9376026183632916
0.5998862270171537
0.25389495905422255
0.039624544588018146
0.01976717089762915
-0.014598505690215997
-0.10514754097650729
-0.22724736173623375
-0.12387422557750383
-0.11659803850361318
0.022200060078160024
0.0417605890662446
0.027367705405728544
0.05579139388069177
0.10466917853818752
0.06906294135338177
0.0842620894952716
0.10691131517372421
0.10178828606501797
0.14173994171374155
0.1119253548816867
0.09806400847601429
0.10876209962645714
0.1756993460436898
0.13221949887198975
0.14123089110501055
0.20676679804323003
0.24519837310250542
0.2774342307600106
0.24169966892227684
0.22569841054144194
0.25511993232526886
0.2471183519511424
0.31587025667917595
0.349954396440568
0.3344116997437895
0.2840261517395566
0.36370202661303463
0.343107160563269
0.357762498585203
0.3360756813970574
0.3802146026199965
0.30052416229172485
0.3214130193764724
0.3633388653881646
0.358240309033775
0.26481338348638384
0.31451822547041214
0.3061589065793415
0.30485682590442864
0.28288974636443776
0.208474061392296
0.28322542035907533
0.23217455679630414
0.24184418351857265
0.2170782328925636
0.2358098393382581
0.18420294533585224
0.2209789386809181
0.17440175568821772
0.1357826811015012
0.17826478650218677
0.08443693082629525
0.09805670825585001
0.06740759430732182
0.11661731491721049
0.07073344038559023
0.08996239488391458
0.056093646807082655
0.07888511741906883
0.11167819201926076
0.09279473371402018
0.07856232442003416
0.09099226046127919
0.06545501389355086
0.05926346112416444
0.09170588354479502
0.09467482708001733
0.06227454310349693
0.076849279649082
0.05716657790037777
0.10328380682830897
0.10387015294540379
0.09024060403295905
0.05047252539551076
0.0599497242875149
0.04021695039922245
0.14675380216654516
0.047766244558953876
0.07891730099562695
0.10400253027128553
0.15074529333820347
0.07178777319066287
0.11634628948634637
0.040760434520788966
0.08119971378317768
0.09828787677746867
0.11223948452019562
0.06871294787532073
0.09910258838996454
0.12483968437569185
0.028740253627762904
0.06987207808264317
0.09643090886028031
0.05963202935558303
0.09451037688820642
0.11186239283141274
0.07499933555486837
0.11129507780444672
0.06630481535315441
0.07446850387510187
0.09017915441702642
0.10514761578781955
0.1153491812379164
0.10802090325441478
0.08392549849128406
0.07474120988621626
0.08321713074685999
0.083206608229479
0.10381191234209343
0.0600582525631444
0.07118795712726354
0.1371640337161592
0.13665894812237184
0.04342267908043573
0.06509876354805814
0.1131674129472791
0.08222652605849573
0.07839819016754401
0.05756874845007763
0.10997464517820293
0.09993753325347915
0.07347342406950089
0.09004225506624047
0.04937320403489484
0.09439858321552888
0.10850483847630682
0.09340896835322428
0.09076532959970215
0.07699354305217354
0.04045652877902655
0.07813109782239831
0.05328463840033267
0.06099403106278821
0.085542303460934
0.06070349991445508
0.05646723379812389
0.10959441247119439
0.06732007626989849
0.08906210342678973
0.03324406849858046
0.041959757492082486
0.031009118297605404
0.061173537899756464
0.07222646074506199
0.04964445380389714
0.06054228775570341
0.09716551968188754
0.09340451438391452
0.0961561968731802
0.10797660088562862
0.06680815585385823
0.13398673212673615
0.145048965445187
0.12098956400526165
0.14719184694949408
0.08812788941337034
0.14027653964888542
0.12042128582941408
0.12834171325565294
0.11149011269204065
0.12921647318900728
0.094707538846425
0.1817558233581429
0.0714436446597203
0.1291058678570893
0.12555132884927053
0.06593253204207751
0.11848063927844234
0.04885079432217898
0.08331552933946332
0.026876662648409953
-0.04247239798685063
-0.12597460528407167
-0.1432699951307304
-0.0014031795331352094
0.5999376146378658
0.8633976361841605
0.7709361752000036
0.4299010168636392
0.1386971110919075
0.026211897689024693
-0.04139770225115011
-0.08172309821632591
-0.2244479597239478
-0.2994151798915416
-0.1581246135313305
-0.06444294885566501
-0.01854690855943457
0.020331787752567908
0.02175770567520031
0.043917946169444486
0.0595437159107678
-0.01664296428159488
0.04082926299855424
0.03299684547873074
0.018970572629760173
0.0864908530864873
0.03947003347982108
0.10762701234783359
0.1008412696933576
0.08738889101623691
0.0943957757499861
0.14386291359367773
0.12451457111749922
0.18146062328347415
0.1945608007560173
0.17878655892747478
0.19467393260678464
0.2576606238544415
0.2245661991045262
0.2404057616315675
0.25150393868933874
0.18373713919068413
0.28870476380153903
0.22366719569741
0.23394269439744142
0.21800790029987874
0.22509286088404046
0.2629154034094305
0.2732340953227726
0.23889975468954128
0.24637876842501885
0.22145176107581394
0.2334126572481518
0.2447475750048625
0.22806532791142897
0.17460889980161423
0.20522409997905663
0.169237952580276
0.18564522090371158
0.13011601672779102
0.10376779463401381
0.09524983349639539
0.07137211850647575
0.07971028555507029
0.04227689820413967
0.047581435878432346
0.061574093335015755
0.023511029796963814
0.03506232976487947
-0.0014651030442226155
-0.013960372654359442
-0.048169197538201855
-0.0654403935443734
-0.03261272882160541
-0.015408872351912134
-0.052924854576337915
-0.04777609697191052
-0.051489680840056104
-0.0415574521169772
-0.052852784531667696
-0.04206759863562745
-0.04230363733712474
-0.0577721861479484
-0.08884241834969428
-0.03299296063715626
-0.06874385382853912
-0.03550035424236417
-0.04148144396817952
-0.05309795213477328
-0.0278336650421489
-0.012783222260682528
-0.04733187542856331
-0.07964360646429074
-0.06885916760269391
-0.05301051762463812
-0.08353553550577
-0.05835948227162554
-0.02336277249384208
-0.07645111383284259
-0.1230040601370183
-0.04797207366620787
-0.09095959638853009
-0.05985563557927453
-0.07269594256285519
-0.027069498463168737
-0.0541838157174114
-0.0946243632232224
-0.05435833574182162
-0.05866079206808073
-0.06641327455780867
-0.1206931649867856
-0.06299554713117952
-0.09542528567194031
-0.07500384954153716
-0.08290205477264213
-0.12305267065344092
-0.0904783944634173
-0.08843534129162231
-0.11915968049257014
-0.12070269779786168
-0.07878559088315895
-0.06475425235767436
-0.08082535224336082
-0.1020313191060716
-0.033790319063491316
-0.03300126905970128
-0.04435032162602886
-0.04066262236352748
-0.09278409141341838
-0.08949363732847106
-0.06026639385007323
-0.06755106662233303
-0.08437455856732344
-0.11265528695926288
-0.06572951357870101
-0.04770771833501863
-0.05602281073380291
-0.08965586486872894
-0.0865900187986974
-0.0832985563146956
-0.07910850573524429
-0.06847984155375669
-0.1031432999339431
-0.09333078526926782
-0.08803183836119013
-0.06884346505725203
-0.11456785267858764
-0.12392234320914827
-0.08655466360575978
-0.09671106346774845
-0.01733551498887426
-0.05378379551496671
-0.05581168808240518
-0.08453365684299805
-0.08870246206253851
-0.07649223149392516
-0.11932436397983485
-0.11593104559010214
-0.0652620898561745
-0.09439809806829284
-0.05177037462729964
-0.08361556494013546
0.017407210894167174
-0.024468231876653528
-0.04061941000114831
-0.0777057697482193
-0.03478320341607094
-0.03227775595169658
0.024554702530699954
-0.01868013303491924
0.003585218638191499
-0.0012894762508944228
0.015754077919583536
-0.024348709147681596
0.03696562885083485
-0.0364126097941787
-0.004788215074130463
-0.008015146845869405
-0.03762996227116654
0.011322820564701071
0.04328752287498013
-0.05055202883399948
-0.014478346438450918
-0.11673506958213546
-0.05220904841616865
-0.049653023898094596
-0.09254739152605014
-0.10824166463689328
-0.26056339172809023
-0.2898779386505004
-0.17728387032416762
0.26463372795078827
0.6440164842416944
0.8141667790698929
0.45850411686223863
0.1981033378863857
-0.05618030793382022
-0.11452329807410885
-0.1615665664906167
-0.25241340742773827
-0.33231996831659805
-0.3050552085149945
-0.228416521884733
-0.12653315120601838
-0.04887088872045418
-0.04440147590093252
-0.05852846818939899
-0.04907529782812037
-0.07717276308320657
-0.05716211618566182
-0.009515285575421455
-0.07378537271557037
-0.012505335909338175
0.004737505945056964
-0.0023144705239098486
-0.010381271170521804
0.010221086766913865
0.031367909013421943
0.04424780741940672
0.08490752209818016
0.06134772406897718
0.09985801888454983
0.08107514785725742
0.10161574803224917
0.19440777110977275
0.18608579261157993
0.15281530833697304
0.1673711662478982
0.15392392096561774
0.19284955143675897
0.15941066022816072
0.2347751490292862
0.2421602340892482
0.24434658534495243
0.17700876313016867
0.24288781542605936
0.20614771802625084
0.2493259001670475
0.21979099832322913
0.17131132580589148
0.19422228543428469
0.1653351579866316
0.2258312649107079
0.1560248365320933
0.16456157338616734
0.11506116382212629
0.16644108387485035
0.1315241903150132
0.11970496468629138
0.13361415172240554
0.10434021447971567
0.095037103179968
0.07658034264232237
0.028679369041840045
-0.008550853182820227
0.021353721587522235
0.02613687957246508
0.021944633129292915
0.011049738526497798
0.03316318058125502
0.0034620359639485135
-0.05433327932688383
-0.01994451146864204
-0.04305801838170931
-0.03255454743457009
-0.017810217979131675
-0.009908160144764836
-0.05191148867070333
-0.03981225206035285
-0.019491370555740888
-0.00974741059298747
0.023373001252284222
0.04220155850512942
0.010995149191982549
-0.0312820509492905
-0.015508590619945509
-0.006434144005172002
-0.02370597834034776
-0.04628145230147089
0.009205832793663157
0.08677190276953015
0.04784212899750839
-0.017362809084947257
0.02734955076785775
-0.028325925245725758
-0.004685840404460455
-0.03827817003627203
-0.0022123517297024187
-0.038896218870692494
-0.001684412086725072
-0.008884862771086056
0.023446367983287555
-0.006797439593124563
0.010509288737957867
0.034942719313410225
0.03326315458783723
-0.002607653532340042
-0.0016413736159592077
0.047578947587295195
0.060557698230399984
-0.012061093385039407
0.022104064240653285
0.024339356050494528
0.04959118710557525
0.009079362656302385
-0.025382924173308744
-0.005287827514585791
0.06861640668223133
0.030463064089814414
0.0076497065934962106
0.024668590183746952
0.04455177764395864
-0.0007163051349433445
0.029353648602521095
0.03406608808876203
0.006325303980661558
0.022251116056715498
0.04350959051185395
0.06754812856978026
0.03846431799977269
0.036561433080091646
0.053930166485163286
0.05861725542322959
0.06502280071225748
0.046937729730560804
0.054470077494791436
0.03870155222461947
0.0674402541093911
0.04656583440522192
0.0005880771440587397
0.022391768388162304
0.07841933173683945
0.029955165974438314
0.0386404249358184
0.05935034969539951
0.06970035003886224
0.03377700372880086
0.0829936111036018
0.04779342380592082
-0.008778924060297408
0.051827064212642014
0.05753931701053497
0.026787738023944532
0.06969511667443967
0.06202909618050483
0.03973535202622803
0.1008431001989133
0.08145651016366029
0.11167940847523265
0.06930428220275824
0.09905699118819473
0.16937629404668356
0.09075490526533414
0.10840736709474731
0.1319876587779256
0.1436311798587923
0.11793203509061191
0.09774121343380886
0.13330076322891093
0.15353928253638754
0.14140936321442538
0.18795823414063714
0.1358654335212654
0.16507321205979977
0.17243120741766413
0.12795296384935545
0.143778725359159
0.10301430978275584
0.1598581163670955
0.18163674807823213
0.13297065283074141
0.1006795719892245
0.1340985742531743
0.07516934911361751
0.06775402362367357
-0.03325107646085588
-0.053914045118542954
-0.08674388456830129
-0.014260904037397654
0.6969459665689329
0.9283019538842935
0.8321259650255687
0.4645482792522731
0.19015544758731903
0.13992408130093317
0.02638606438972934
-0.033754449148038886
-0.14649272584829898
-0.17502592632252434
-0.08830761519205646
0.059766406841788834
0.006174005087501965
0.037234021645409274
0.06328116270729198
0.0972917368619332
0.14329665233316288
0.11388634369402853
0.1497195097316871
0.14664877058727654
0.13846312033740793
0.11966499896918979
0.15433013645767213
0.21457499166755073
0.14483993519698554
0.17773158461169722
0.22774621853154495
0.20474952813326877
0.263694534737322
0.19981691100130555
0.30492171137816
0.3103339856532675
0.24527029697444194
0.31618810746255294
0.29002192213322264
0.2947919646205256
0.3086045916120957
0.35812112122931233
0.3819722342864504
0.2983936924480018
0.3326000784840621
0.38950032511252775
0.35530414716044434
0.34838661358679146
0.35709057021821444
0.3123174463283012
0.3535259042897339
0.3420116113762
0.3798928838431019
0.33878011541349523
0.32194046579757996
0.3040642548411675
0.26478510484967044
0.2513796922785588
0.2948263923277367
0.23497501650293778
0.2563834778548096
0.227062114096757
0.20483811832022303
0.18478441129852552
0.1461343290397052
0.1352567008582554
0.16870918154702105
0.11902252455111129
0.1333926967639087
0.13784811144818748
0.14692396065034574
0.1575022394335015
0.09056130198825292
0.06723114106211596
0.10733161226986042
0.13267877403701533
0.06322810102890589
0.07061029881138757
0.07558616817762052
0.04250730881141814
0.06771188503456206
0.062027374986342615
0.07943342250868943
0.09064574943235787
0.10432454785762157
0.04206254877180487
0.07483813944441571
0.05586022743156625
0.07731121346754186
0.021020828891275555
0.01470619527976814
0.12071644796295297
0.04198386463789252
0.03653169993293984
0.1022218755239796
0.07799473217724151
0.044236293266974064
0.053591671356783686
0.05528177375210274
0.07695208950404799
0.08752161440549706
0.0691664038879993
0.030371788078033316
0.01313002681141241
0.07096599307581382
0.029618195957977406
0.04782648589661214
0.060415982019013825
0.0672769928972066
0.027638693933894194
0.056076448141055696
0.06643953329278364
0.10200633059035695
0.05569822623994859
0.07752464876345781
0.032554663908984954
0.028891416323010503
0.020054847189999624
0.03750041798330896
0.04476856617011172
0.041887581003500506
0.013446960030453927
0.04409349941153209
0.04880809136901899
0.028762386265072472
0.01136556378511091
0.027537033620605156
0.052456253026958326
0.03908299042612316
0.04027998276467296
0.026806522192908484
0.04387577619946448
0.05571951632388963
0.003470951591435805
0.0178962576063274
0.04488622997931567
0.08938412665112495
0.018346746831708775
0.03441447595803839
0.054092132385318445
0.012438374548025377
0.04081120493634275
0.013622967097912771
0.018609381617400274
0.00995684197518847
0.009925808715292432
0.0010820810876077391
-0.003284396056657949
0.029639989419235863
0.04043759478946572
-0.04244271922191745
-0.01890067090092491
-0.018160311474035514
-0.005052160908741725
-0.003511943845121306
-0.021958069220581366
-0.007960406444796009
-0.016464667416852496
0.010518363480447965
0.00340686751828688
-0.016071768157573853
0.006611941459416972
0.023165025212156905
0.042477875645318776
0.022620646144168845
0.03686462404611021
0.0807631546312829
0.06956059276020715
0.1005472907212626
0.07928311695287084
0.08252811480100673
0.048420748606364666
0.07026194219393696
0.04795316673966653
0.1456867339290921
0.07840476819565413
0.07939155163801911
0.048725921920513185
0.03841259726020242
0.07964034964689012
0.051904721880732245
0.035959944668552776
0.02723956104224064
-0.00394314383182605
-0.022066673383515343
-0.011629566716193512
-0.019262332454253326
-0.022492733373751076
-0.1638722246644893
-0.18155565953988306
-0.20138103456532236
0.3810014858488877
0.7402348352692779
0.8417217211160721
0.5477767744693337
0.14385839981832402
-0.02632281225033532
-0.012797694878554122
-0.08956255373816033
-0.2254843999564057
-0.34419033725461373
-0.2685102502108793
-0.12682686774628193
-0.059087638753997467
-0.0650496991995428
-0.034399057603118184
-0.08799714294244004
-0.04794710205215013
-0.07694979581965034
-0.00723040560239179
-0.029495237860512228
-0.025606906088175042
-0.0047194479057486435
0.005214343146487644
0.049980060625072695
0.06640770494454103
0.03235072941147805
0.007137634525744098
0.043806555975814204
0.04577150945566613
0.03941019061439142
0.12646209087623253
0.08286403229184582
0.12677143375620165
0.11360906889201422
0.17611645778789525
0.13679666927937584
0.15081243093602917
0.18384801217534055
0.1966921544271235
0.15709080481821816
0.15985530461482295
0.19494462358407386
0.20641372490525883
0.19414418628737617
0.2355145701235772
0.20155458318598196
0.17689869432759361
0.17666948853092468
0.14170420635273107
0.12216160657555991
0.1228412597633719
0.17646739560156113
0.10045628291939121
0.10829046297740554
0.11525365298216342
0.0876694996495469
0.13544793287551343
0.0944248090010129
0.057536839029548106
0.05805115081924323
0.006107299423791582
0.0004818951517887348
-0.012572846025870311
-0.03420489898257753
-0.016328044245819406
-0.08328379022924015
-0.016197114333989068
-0.03386058385974342
-0.04420392032877771
-0.09345987787338694
-0.11209924103761232
-0.0715826904681892
-0.12359050067902615
-0.04754663046090135
-0.10917771504951448
-0.0990236422123537
-0.0397626473501653
-0.09192147146596308
-0.10789328365709114
-0.06682353664323314
-0.10487675143109638
-0.09290620948065212
-0.06273106625134416
-0.07474290562655926
-0.08417647476443299
-0.08186843745855395
-0.10746790386070534
-0.01833671652149988
-0.13205288908699556
-0.06467311441183947
-0.11592159404117104
-0.12094798068094707
-0.07211861489605552
-0.115778025330134
-0.07047156981785768
-0.010399369733454697
-0.10879757344539291
-0.11477095227475304
-0.06813824894390988
-0.08820368215618266
-0.06242383579863639
-0.08458668756756368
-0.1287417003359241
-0.09186969210175569
-0.08942590789096577
-0.13182390564499957
-0.08268582836871015
-0.09631953134659109
-0.08202448345571005
-0.10848126147809393
-0.1552296229781226
-0.0776092505264341
-0.036074206772226974
-0.12668776982982421
-0.055375251554251284
-0.1027803182230357
-0.06537380302650028
-0.11291057141493017
-0.09694579521130513
-0.06699968984901387
-0.07712607686038897
-0.0860470310529093
-0.06360838558947293
-0.04664239645701727
-0.09491498991516997
-0.07233071014472818
-0.08934620071858042
-0.08192295383112248
-0.10792773353700195
-0.07648687893837897
-0.05748720541519115
-0.10812601363778966
-0.09311954526943766
-0.05619854564191321
-0.07344992698014687
-0.06403534450493714
-0.11541764858974617
-0.09419466864338068
-0.09772562799690511
-0.10659706995884081
-0.06579924614959008
-0.045402767016472535
-0.07632586282216686
-0.08152428853939298
-0.07894961233858858
-0.08327834462678453
-0.07983943425523847
-0.09651486748929256
-0.04144983592220697
-0.08150799171272008
-0.0972187139879405
-0.058205768788030326
-0.09224958424256827
-0.06592619727924127
-0.07451751700710836
-0.04494906275411547
-0.060661561780023174
-0.07322272255930198
-0.07768754252376953
-0.013390742359950674
-0.04057986225343762
-0.00814847886805241
0.019498259676355576
-0.028208121780814444
0.022523459998232333
0.04853427337212495
0.03958260338815795
-0.026863534613145095
-0.010337834952949255
0.055581849719939624
0.0243862801126977
0.018793086625900353
0.07887418892436135
-0.008808244180813276
0.02867653875065566
0.07020580791512704
-0.017484741753214038
0.032168157601966334
0.0011588108396174933
-0.005754254822403834
-0.03662818814230767
-0.006566068349052153
-0.019000537552334745
-0.01765833288829291
-0.13678365318115987
-0.2084196996375145
-0.21907263322847997
-0.15655915983999985
0.5368586285155864
0.8429213965737073
0.659220219558411
0.29596477328465365
0.04289291633799518
-0.004691855996553244
-0.023795692497065046
-0.13320315432664934
-0.22086509067595853
-0.27690471915858383
-0.15107401979900342
-0.06599820570309786
-0.046782053374624495
-0.017204571899672352
-0.0038844917800990334
-0.016604111021667443
-0.03820790967881812
-0.0022040736533765395
0.03793367437434211
-6.326132436073157e-05
0.03562780097301575
0.06115428269388383
0.03360459359629423
0.020866661314939812
0.00998371116346739
0.11973819557225983
0.10126091408239407
0.14875716883874243
0.13084191925452354
0.18111131525472673
0.19221380709293745
0.16494071820927317
0.22519620519449038
0.20266227553848332
0.2496563294186561
0.21869269935754895
0.1816809583064475
0.2495943346689926
0.24450658323020485
0.26637314460247336
0.24472929867509924
0.3019855142520116
0.29115274700659727
0.28130062908983
0.3354014257890404
0.27166057533297217
0.26223804307409365
0.2902060727796019
0.2848380996115531
0.31384037332523085
0.188346361359461
0.25796366635515133
0.2576121455755397
0.1950558272801193
0.22522730954673306
0.20312997287530907
0.21296376747871681
0.16465811045333784
0.17269996980002777
0.17363348467220593
0.1366656743560261
0.12439265859221782
0.12260804789110175
0.11571729523475369
0.10965033239890233
0.07686105610635288
0.03667854639149231
0.0795343508229943
0.08125703468620063
0.05231949703646023
0.047040240066712674
0.03722834757452835
0.038984531720727314
0.016768609885102904
0.032990286328837715
0.1135428918593573
-0.0026477992804881277
0.08292211812118268
0.05465060989713058
0.0518019643678781
0.04170627112834287
0.06974462031193539
0.012439301366383116
0.07129571638597487
0.07203526791368516
0.08061759535597757
0.09432443802008171
0.048996586065678506
0.04926058558354331
0.05118667883874479
0.07664196455937931
0.1023579751721665
0.04433469391123774
0.09175252650706786
0.05029053936970712
0.08155214299307947
0.08271590590560003
0.04556351735053685
0.06312516609107482
0.07178213405020088
0.09141734352717475
0.07320836236450151
0.09941158081344455
0.08576597968410904
0.11747472594708135
0.10462570324767646
0.044348789515214246
0.09280628315557322
0.04352347047428479
0.10020732232161625
0.1011753609167097
0.09325976591915325
0.11515058937250304
0.07212075449227459
0.07292532994774768
0.0793056941287987
0.03966086210442784
0.08329481968651117
0.07389537087418978
0.08927015656120747
0.08811384953216869
0.04167824480910289
0.09442678345786938
0.04107752156235728
0.02592453652504169
0.09588451053095173
0.07912834210616086
0.07685559289170453
0.08399332223799766
0.08646778578869743
0.05702397588197816
0.0626145524477183
0.09276114659004281
0.08899299374470598
0.07457784721666719
0.06774509989914249
0.032405258400962755
0.10161965823905057
0.05589031359200524
0.12039230767766693
0.0754839626022935
0.11519616416776654
0.08498358999123508
0.10316142508877459
0.08628845879955827
0.11461399309120451
0.07166297112599837
0.09905335633033184
0.06457805845706457
0.08526466704202285
0.05866538219710459
0.0928098071869629
0.09633083989369413
0.046489407610189326
0.10298555036335132
0.09849484727419676
0.07589849947625714
0.09489251206294531
0.05078519167684758
0.11249288869404096
0.12180851051711622
0.16061892622743512
0.11724148101903391
0.1480896992488476
0.13476078045777545
0.13652616525036138
0.133713553976809
0.2007944931894767
0.1751453935016416
0.17326633132052935
0.1736441457414222
0.12201904185948967
0.18825776251225315
0.14904386617954274
0.14340658855806135
0.18499959995065574
0.1406772385150168
0.14091289731578757
0.12300817702170332
0.09419916260184846
0.12547107205398356
0.05096606864722159
0.14371545274773115
0.08618214918479902
-0.02948203714221897
-0.05297040798578019
-0.1024235820253436
0.4991276393696853
0.8467295215191182
0.967677211481932
0.6219180148075149
0.2794433296065349
0.06307136575118812
0.03771479194632662
0.03643275286643862
-0.07195177562192974
-0.1450948035638253
-0.11578141985730958
-0.0315593126521593
0.03254131388097889
0.097732071320007
0.08154110975353274
0.07395145013892736
0.041079203587930935
0.12360776676661724
0.08089250744350407
0.09147291369173842
0.04994427610546135
0.13148936859188493
0.15782199269752814
0.16710524804587223
0.1646489926472355
0.1771690408545533
0.14999651509402195
0.16855893034330277
0.1958908399176488
0.22850041583811181
0.20150570345088853
0.23673008012331417
0.2418060150469719
0.2760333491942082
0.276944531342671
0.2783201963196234
0.2730480808608384
0.3671898558194857
0.300886518569866
0.3218681427845449
0.2829235650572772
0.3351377309605658
0.340375625112763
0.27904676568502534
0.28113899740701975
0.3048451015256936
0.30689723871089314
0.3066387333776655
0.32453233246171964
0.2556954741974115
0.2818802462901986
0.25538045721137625
0.24210720985349432
0.21996886745445376
0.2126958989938795
0.2597963513900758
0.1803815419988711
0.15149622314104522
0.13923047509953546
0.2096720934396362
0.13969813972702025
0.11192554082024346
0.14547361289191668
0.13662217530496557
0.10098191191542434
0.083734320982039
0.08676658177661327
0.0419640826387021
0.014066378944669727
0.02832242623965529
0.0171184205000148
0.010995189636376083
0.035678743303439064
0.03311485904529624
0.02503913967252373
-0.0015488955932006564
0.03131107989945907
0.010336536227287106
0.001971052168061728
0.006087701534969732
0.05762473217149243
0.011894774803396757
0.006082021196288093
-0.012616206342586655
0.007016565365882633
-0.030077912448092683
-0.024848787257936922
-0.004785729409639816
0.006475408654339223
0.04555247701264759
0.06735472480923342
0.015449140042317237
0.012950493817291797
-0.005866977394072041
-0.017359984174798497
0.03217271334299122
-0.007865337379402395
0.012345908208520724
0.0200322498028103
0.02383023819434003
0.00899388042831209
0.02004223315123173
-0.02067558955256078
-0.01489576328266788
0.006920136117103658
-0.0068306951361995615
-0.03272838767909976
-0.05424419860987909
0.007219984699266515
-0.04889038345495291
-0.034861424008882
-0.010899185117173794
-0.051181456184443745
0.01798253211715794
-0.022232678201602202
0.03498219633457033
-0.010956102301429068
-0.03909315265114323
-0.029534857418762318
-0.03448960216127217
-0.10272987925887402
-0.04198770772234068
-0.028290496204254285
-0.06035871313608492
-0.023636336908433933
-0.060391626796247336
-0.05088539702559497
0.0014276065414415692
-0.023181021418053102
-0.022121338415132717
-0.057827647890824396
-0.03530026572540857
-0.027013650984776
-0.014336595159051755
-0.03870266745280468
-0.040007229625942844
-0.050408916780917974
-0.015882560916142305
-0.06997632001296966
-0.041008938973859224
-0.05812556836093535
-0.057272961926838714
-0.052414402197137444
-0.07994673917757267
-0.06717785383086265
-0.08431959422515325
-0.0948354308600112
0.0317353420189809
-0.01039561278252994
-0.0545095343933886
-0.08882206200458459
-0.07755892371783814
-0.07158102247865158
-0.09316673191395376
-0.059082880689863254
-0.07059253441413248
-0.018222261447695298
-0.07448445691820496
-0.026823954799362004
-0.06384278909165765
-0.04640862185367181
-0.004619895041775299
-0.018072276204847134
-0.04811873800378767
0.020374923553250286
0.01139586293579257
0.03258916402745469
0.03327462710786984
0.04080911120387744
-0.01048562459463153
0.051510500912191046
0.011384274656716457
-0.038468839902655164
0.02603472500674188
-0.019231900056109055
0.024821633463626154
0.02994530612230058
0.014880735338391054
-0.06871373998117958
-0.03898372763343292
-0.04349672802314921
-0.04610506584215461
-0.06247440600500321
-0.04942574663041604
-0.1725636125263011
-0.27573464744513176
-0.288378929080677
-0.2018991587235191
0.48532010197636805
0.7632974433199938
0.6583663476716328
0.2712466336507311
0.008683586884870491
-0.06817671819366478
-0.09742987365936778
-0.14767693147013408
-0.27328160750712693
-0.32555423843900316
-0.2351779212256062
-0.14172084562869325
-0.07018015836257123
-0.11300535649848241
-0.1006164884586814
-0.0514144489963624
-0.08155779724869797
-0.07823909706171532
-0.1265931004440765
-0.06490316227650529
-0.0798281591184539
-0.029836097120809354
-0.05345685710794281
-0.03591022871526619
0.01672614245160822
0.029804682346558257
0.0016961144763949251
0.008625634097323814
0.1426780437343426
0.04282186034597553
0.06549600375314524
0.058866089696628716
0.14173412646561462
0.14674089394108325
0.1297344352413839
0.16954702654736772
0.10537016398403921
0.15364245138143576
0.15955439376081382
0.15300983440706026
0.19711582935228886
0.1660891505734725
0.19839138666275918
0.18917552514734104
0.1449225155084137
0.11863951978840828
0.150286541168867
0.18102318868386943
0.1511832778978769
0.165606940196452
0.12514882138207417
0.132257428199266
0.08663733042424182
0.10835818078198282
0.059589147888442065
0.044015584115756685
0.04512118080901761
0.05897211500480815
0.06550880859629027
0.039274287177445515
0.04444238990971365
-0.033384831004199665
0.011354727225033685
0.006845128703957707
-0.014458586433766879
-0.07181396319848557
-0.08080263489664735
-0.04727764581342673
-0.056071025647872294
-0.06738931176974418
-0.08900876816826221
-0.08591468984240218
-0.07025082715035444
-0.06510150377848228
-0.10886233458134872
-0.12058378928269171
-0.06292440079262925
-0.04489414405703272
-0.10422933339151413
-0.06682282660888052
-0.08708557933154966
-0.06978031905981541
-0.05507219811731463
-0.08311676306839823
-0.0827686336091212
-0.05233793562174734
-0.06021016370029675
-0.03890276799329626
-0.04854046275470045
-0.035062015451714015
-0.07352481048006056
-0.05744170741902196
-0.020109430517832965
-0.05723698581445929
-0.028584020366599315
-0.0661959647044746
-0.0886493313230892
-0.04906274173921393
-0.06804125383197338
-0.09486429403766529
-0.01675801254676748
-0.08374371851265622
-0.06383111200922459
-0.02854830764381394
-0.05113840504242118
-0.03251658877058861
-0.09836222765447475
-0.05021441797311179
-0.04099832885785352
-0.04736803918755285
-0.05265176335065936
-0.06858868474855465
0.013044814007363716
-0.06474411432750292
-0.014589587844406249
-0.054491602567389885
-0.030841442066253964
-0.04266738632118653
-0.01873716951817325
-0.05086824817380252
-0.0641304202618831
0.01006066893022824
-0.03208138152523372
-0.050479277411470444
-0.04053800172154106
-0.01236187452110926
-0.06884605049548882
-0.031343540020588916
-0.03723111737903473
-0.04142063153800399
-0.04676906891733235
-0.08279135638207272
-0.0678127484699723
-0.010166267283869535
-0.01001253018146554
0.026580682271952608
0.005903692405718313
-0.005916040386904085
-0.019942948238429105
-0.01064650590263536
-0.02270460683848838
0.007837479866598804
-0.014668527178262405
-0.03066320824852601
-0.0775199903484431
0.015774692809751568
0.010206921748075064
-0.019271543533041682
-0.00559870643886978
0.009103494236719342
-0.006702396382186064
0.015360070117145378
-0.004665515299664872
0.002373184820435719
0.039176083652874366
-0.0006692132288925155
-0.02099288856181186
-0.009501166753791168
0.07949242162209211
0.0338061322299975
0.02685146008921916
0.07302544580477616
0.06182786864617958
0.10579747388325934
0.058128912841423526
0.10037894554473982
0.08231272458228792
0.0941027237716547
0.10332255428427879
0.06395813967079947
0.15833019513133606
0.0421027436830241
0.1066484156865191
0.06984328942117898
0.11237210680426055
0.11120294743637633
0.059571337521022276
0.11609051563403755
0.021832846112420375
0.07931969124008278
0.03398289141808495
0.10469909188279963
0.059423907361098476
0.016704239843048793
-0.09409883893706585
-0.16491705565408668
-0.12385255910930007
0.391660959572674
0.7951125055483889
0.905864819404477
0.6172904200730037
0.2530089767016078
0.031459547040350096
0.03259345589028319
-0.0403102038783133
-0.153151738927191
-0.21348385833092934
-0.13446293366054682
-0.04193205458843154
0.03983767587552902
-0.028563347551819177
0.09429647023547881
0.04593384595383429
0.06846083430804464
0.07380814883607054
0.042345718319694386
0.07781444337362958
0.13563613100003355
0.09043635799418445
0.10078812540872993
0.1214700956821902
0.17417477625614597
0.134478991690683
0.12646179780124864
0.13969580819328914
0.22865667426147987
0.17439836075368848
0.20653324263923376
0.2631462187105663
0.28273669426656484
0.24465560589844784
0.3183939152456249
0.3016859264212948
0.3052587335396709
0.23796559905723422
0.30767399317737554
0.32000224290134405
0.2923100801630787
0.35780449148009436
0.35719261475756225
0.3403706550660115
0.29988757447536163
0.3615286335206496
0.37861366039391425
0.35272350063836616
0.3509075372423175
0.322254243622679
0.29860568281011657
0.20711534716535926
0.27309594049576824
0.2770183034558763
0.2554551519740804
0.24737872684209783
0.22924003445929483
0.23931325379216348
0.22282927070003503
0.19256445937920375
0.20379923249563156
0.16015291062684595
0.13201532652395265
0.12531249839861439
0.18366705762750277
0.14253227058906304
0.17877245215341517
0.13472053593701755
0.12449107595652703
0.1395572843407342
0.12444912583020906
0.12184824599951205
0.08275384742561635
0.049918802076806816
0.07923284524334952
0.04130934437052942
0.046340633954080966
0.09527785005142447
0.07993911069581813
0.10606219142367382
0.06675666110980549
0.10035819709858688
0.07386575925160851
0.0507211808909796
0.117303740961769
0.09734637345309508
0.0619507424593222
0.09854050835821031
0.04946722952727341
0.07669920438134183
0.10091329885086837
0.07769639208474921
0.08165137888225968
0.07180914509182641
0.12999665399460053
0.07829482327675409
0.10793096212074763
0.05481313750415135
0.08872566708188179
0.07311627143679009
0.11251687686446182
0.08006853903219206
0.008645899965744334
0.07653001038319018
0.07763364527407211
0.1023747360681763
0.05846614660382295
0.07404122801967125
0.09225259927103183
0.10762696549567609
0.07790436051701355
0.12610819471498744
0.07266420373321911
0.031083185364217454
0.11375101940706474
0.059562072208342864
0.0693222526060054
0.052386196352505965
0.05158806155927052
0.07537804714040104
0.1145517321875654
0.07948268604780928
0.028522247533140907
0.06972198681515439
0.08490527669563742
0.07338027820151828
0.0864548466232302
0.09660290615639198
0.08723899472052463
0.07226430765258261
0.05521420570711312
0.0739688485779383
0.07502083653972534
0.03934558001760822
0.06279275687270866
0.07302383122548319
0.08054953686989155
0.047375981025213044
0.09459342510569366
0.05871935232993811
0.09411315782552404
0.046766721323755554
0.12356244585541339
0.046167594959575176
0.05433093481553529
0.08986995843637675
0.05261182422605553
0.10834152487616969
0.08307859593119918
0.0628585791370214
0.04876228818661442
0.0965402098459612
0.05750457771574766
0.1699005124861502
0.03226375562763593
0.04656389047770072
0.07850761128906056
0.07747877148474674
0.08933468292196343
0.11971113900734139
0.08076919873959772
0.07188859474256909
0.13896105693796462
0.1732534305484383
0.17202851835388086
0.11446702227027315
0.12545745449458534
0.13694170825176935
0.1675200897031924
0.1283251969866052
0.11931294321352184
0.14429540194935356
0.10431689962949423
0.13703775748464037
0.1360424192584162
0.10215810287660557
0.06655639739019575
0.14880830534555164
0.10853828571428964
0.058491591045133615
0.03048396154762019
0.06553824903240403
0.0122328622847773
0.05960595647619774
-0.1301732236382905
-0.17673472659109496
-0.17342590910300618
-0.06524540344164745
0.5790322977966301
0.9391078632766172
0.7178088081467484
0.3998664906141682
0.10701044760647146
0.03882873978663945
-0.029720189304638416
-0.05955686967802512
-0.24429206021570327
-0.19320833239532414
-0.11328304734609175
-0.02287565099279773
0.07274421405982996
0.02186897916216662
0.02368128201822511
0.019368138491431534
0.05104251206410309
0.004178196316624009
0.0884035354947862
0.05958053263865096
0.056557805323977195
0.10024954869825715
0.05856603096253247
0.06370636066144937
0.1094354969750216
0.1549254763810719
0.1641231783575175
0.15185933688060826
0.18090457232525534
0.1511452162563652
0.18478344644563255
0.18313056703892325
0.16127317496206242
0.20106888180733845
0.2134015251925058
0.2025545720619429
0.27922110237810105
0.20864814818201027
0.24045729570927743
0.24126851036595975
0.22009893438965805
0.22593715488441157
0.1988364300028175
0.22761058027348
0.24972557963833267
0.24179260707012962
0.24612842583422087
0.2653807043120973
0.2665042752969722
0.20818692470392
0.17354064436680494
0.2170054926927699
0.22903195711530921
0.1968148589206152
0.15516101957218792
0.11880313516115786
0.14967631996481684
0.08030370292830315
0.0808782047964154
0.052006972270268494
0.008726129600622608
0.0521923259739244
0.020480114213900384
0.03201752089367692
0.06513634717855031
0.022153244231025965
0.0033322345257898473
0.0020281523283424943
-0.027121213662273103
0.0018966017026958288
-0.05766641068632338
-0.05254245683493595
-0.053648315313027106
-0.08603550020587267
-0.07965029089892744
0.005573871160160085
-0.03751974958741169
-0.08843431371910053
-0.0726047477776261
-0.03748165724475244
-0.07038619508911319
-0.01687896707641012
-0.05503084353211277
-0.07773544046810317
-0.10526310987076766
-0.04882398490595407
-0.027916963247409676
-0.015630596964457684
-0.08430168636975133
-0.04696198797445541
-0.08324386506719021
-0.07350558229403288
0.00029400960968568597
-0.07892528371549684
-0.02523448453446458
-0.07502965892267481
-0.0671820117016843
-0.06031548654827396
-0.08179841769199074
-0.10399688862707801
-0.03739386795830706
-0.05021720192749023
-0.07403677239390848
-0.07989615886628475
-0.027192250762214785
-0.11633681727472565
-0.04179039326379182
-0.049179528242612736
-0.08268151481888956
-0.06543516670980375
-0.02880284547711743
-0.08718424826002127
-0.05972882695945234
-0.07485333171796972
-0.035524588326031684
-0.08244054913039121
-0.08763907511909329
-0.07087009652214246
-0.024788314022502075
-0.1047283732506086
-0.09736720052170286
-0.09182030059204142
-0.0977080282289922
-0.06607027342824008
-0.09331955676242643
-0.08994080867490645
-0.07545029602779944
-0.10482624422139851
-0.058292848953458674
-0.073915512175299
-0.09931493983151772
-0.08056244912291691
-0.08464727624420297
-0.05173676403164545
-0.051033849370990286
-0.04925119770222069
-0.03798946171673053
-0.09483849085299918
-0.05895174579012499
-0.044665503825292316
-0.07363055966618659
-0.08705383277414541
-0.08454895491829863
-0.07906567686764925
-0.1277200419828682
-0.05949021762038751
-0.07543286504152057
-0.10266817646801174
-0.1500521811077736
-0.08374938662263683
-0.1293233916810106
-0.08894006660143364
-0.08903054916455547
-0.0406715079066732
-0.03695814552150802
-0.05147930462540288
-0.10685045495856278
-0.035574029513581684
-0.04622067334250576
-0.046389104534280405
-0.022881691333292816
-0.021153360861481122
-0.019850318618434212
-0.04205783223081075
-0.03145555999643548
0.001396528728977944
-0.036310976584524784
0.004724270517047808
-0.01375673626849456
0.0026172354362592855
0.027058410476831857
0.033928703616580916
-0.014122260478119472
-0.018015487071293797
-0.04280709288969541
-0.008136521419803927
-0.03461360024385107
-0.04978689275410133
-0.026334209276687056
-0.02780808318337565
-0.045399901408005004
-0.03275051124441669
-0.059830976965851344
-0.0928630274073935
-0.1823813361353639
-0.2643072172519351
-0.25110295743266003
0.26154054867927196
0.6430590140474713
0.8128211732085279
0.5209866777847469
0.10186197629801347
-0.04485131696540085
-0.09884090834653864
-0.11500227123701187
-0.24192133782112452
-0.38161496445348475
-0.3568618985341212
-0.1604289323896584
-0.1423871119066048
-0.05687840994449353
-0.05370115822559796
-0.04886782735158798
-0.01616335358346138
-0.11419125602067422
-0.04411332398864043
-0.07068252898605831
-0.022310906990962852
-0.029483592366863907
-0.024040523177297556
0.018979668096825924
-0.010409560605552537
0.07308510824007382
0.08556476815039767
0.01864718894715115
0.0838480063097778
0.08663219238510055
0.08817247581079048
0.12615989760448088
0.13821681670341537
0.13880511928794054
0.06892958418615978
0.2112819243378856
0.13711443178001909
0.1737940471402221
0.17515060715764993
0.17519653392198795
0.2223094338038273
0.19401066253123492
0.19538785410208767
0.19606702479170707
0.2221400684098833
0.22076626341282338
0.2513263065896941
0.24926812253210875
0.20775321699248642
0.18817853688780012
0.16349497321337722
0.2152293451023254
0.13073524348466373
0.17894423248330465
0.16396076686205582
0.07978327132551138
0.1373112905913854
0.14516154680561935
0.0839348545626778
0.08275143111879944
0.0844795520323227
0.03239683662095284
0.004238305849233484
0.09256569953959841
0.08248863850305362
0.015936268182751734
-0.019656072119350887
-0.004646155074814057
-0.006882580030703268
-0.046177377497401584
0.04524412705818747
-0.01284039371911027
-0.04455893098359243
-0.03248212547234691
0.001821004687128451
-0.005765790571867044
-0.01113475984506649
-0.02302551948846045
-0.007457849569092908
-0.012147734439761327
0.007289012130395531
-0.052982077465661186
-0.016484576987414894
-0.0037629477281991668
-0.06487706504839716
-0.010162890891626175
-0.01704378322136654
0.02780865376633736
0.03267924105907585
0.014241251334974283
-0.036896574328041595
-0.015737206451382404
0.01932074157536615
-0.00798642956658315
-0.01166131868511423
-0.017284081948373952
-0.0008239824072418638
-0.0337818690808776
0.006927876949832321
-0.0009717619109388152
-0.01251378886885048
0.04264980374366649
-0.016584990265712096
0.03459541961237394
-0.014526428869905964
0.023957384480006932
0.049429291445801576
0.010009575689327291
-0.00018260617622528537
-0.012080268108972432
0.042311007700873406
0.03888399861708091
0.04099274222167043
-0.013258379500621658
0.012840758035731141
0.005041387813190644
0.012368515228262962
0.026454142981717037
0.039589151936726207
0.01173634901304077
0.020599171704621576
0.02827272586488561
0.045667412692911157
0.05790425114592076
0.0004916556503354083
0.0424666541487189
0.020195065030192923
0.04472131775056274
0.017410535523321127
-0.005793233743217228
0.02134052824157301
-0.005125312066008635
0.009273068349834395
0.038379456980466554
0.03337972904310404
0.021685936841563287
0.051612248210092325
0.041063468980908915
0.06248698525913561
0.041312516956654416
0.029405187461141055
0.04571665613258912
0.05255553624210715
0.0327842312338379
0.054963008630792926
0.029980712659573736
0.06584879416145466
0.07428925793766943
0.03449575040353324
0.09292963646547395
0.055446963713178955
0.08100614303275688
0.04648699797092504
0.10380268031722682
0.02685681370528762
0.019467430557443773
0.08196745598621098
0.09577591133696335
0.08186712797226892
0.16073607586067115
0.07891808917303803
0.1664660335375685
0.11645419093255724
0.12396357634761268
0.16334100315724745
0.17636238731123755
0.12078769472933548
0.16375688599472976
0.16024265351808706
0.13815193134111542
0.1372529338105563
0.15584374498360754
0.16342460980623116
0.1392994669340451
0.12931795468747173
0.1385312014885244
0.1701041040072674
0.11993419888766092
0.14050269747798247
0.09924731792075486
0.13421717212927062
0.12208831019987604
0.11707322818041536
0.06655865638971921
-0.04827187796517476
-0.08567567692427167
-0.05968376819367607
-0.05157325737137147
0.6671511333982163
0.9501140420724931
0.8807310778029165
0.45944361801780526
0.17193100470122333
0.09185251616545863
0.04497499205516388
0.02769146735511163
-0.09513172730987586
-0.14756049223837006
-0.10442111136394616
0.0643180227395584
0.061833482481203954
0.08721356946641952
0.08884226018531105
0.09892161306073016
0.12451166410982081
0.09849464928364993
0.10673710176500747
0.12772927670670517
0.15031434056170356
0.13770048824500786
0.19809349190362585
0.1240969438566698
0.16412414935202216
0.19238998195214266
0.18602776410378705
0.16211516554383554
0.27616709339865364
0.26081933476233204
0.28943174856904097
0.2754830613697652
0.26452523961668056
0.315490281890757
0.29779495339713113
0.2655967861144489
0.326678382832708
0.2813678643879369
0.3334806572087338
0.352509973952224
0.338215581172418
0.3375585095048304
0.3422070612119691
0.37824375756588385
0.4053286636992313
0.3642489803068733
0.33678434762067516
0.3556377508925234
0.30256848888591836
0.30011860467770374
0.367158323317504
0.3039645120136478
0.32053876256516356
0.24610197416028684
0.3147273620356472
0.24619930769221907
0.22435258321685822
0.2096000397749674
0.24427954694536472
0.2118180053676006
0.20055904818668363
0.14546190453825225
0.1251616296813685
0.10876921275459994
0.1621440608723681
0.07251383378199683
0.10144277420999342
0.09571234687777053
0.145342079334211
0.09860040416522109
0.08905095223191987
0.09820460880722968
0.08862526812467603
0.06324228820010762
0.05801303031970005
0.06317561784473154
0.046947038297032076
0.047229874157544385
0.09237591440564279
0.07824143553092514
0.08084984742307733
0.10313151393435842
0.0702520916889102
0.054118327590738875
0.030347991316089715
0.037133831870417515
0.04543875328232169
0.12097713737898066
0.04220364423935592
0.030091156671608308
0.0497210936134201
0.06684793480318195
0.09344354647980536
0.07051882378012418
0.08069428475936163
0.030817889403276504
0.03717317406030742
0.04590409744721308
0.06688580935014679
0.06431348334928418
0.06461705886458763
0.09467621219296357
0.053757425070245564
0.06445644880618819
0.03546148886180189
0.04779155296961225
0.02989162360146294
0.06914945167489774
0.04025082438352853
0.03892097331056321
0.019138467635678526
0.03612078619281586
0.06525265363890716
0.10994881778334233
0.043638932684191584
0.038686112134890364
0.02657037928234538
0.03131371964658492
0.0798074915364113
0.08316144367132842
0.06201493829660271
0.07510286724699174
0.04163837373771298
0.030038691833004057
0.056579013873087725
0.050142686073652736
0.04427799302472001
-0.0012191760138051554
0.0037793841000242495
0.02064518928242345
0.02259699123589948
0.007098616586599401
-0.00722449416428481
0.03634459684836472
0.03680614153185218
-0.029222679344508395
0.0389298359009356
0.01265392194705313
-0.003589255382845744
0.02128952294724203
-0.03343811327298074
0.00912974085721313
0.04627653242821248
-0.006580573573662536
0.03738396264619252
0.03933755557297344
0.01370750899631751
0.035183307530695804
0.04591748292499657
-0.0015257865034720127
-0.006794987961005976
0.01016495039564717
-0.012403319129930807
-0.01878314657221331
0.09321987731409702
-0.005865278276071179
0.019644955739271042
0.03232656187904878
0.010740860995866873
-0.013660726097494483
0.04685988846416209
0.036879337982936834
0.023790865181048358
0.0565285433808222
0.07238747451595176
0.06263827264320687
0.08070567512768322
0.11252669482081253
0.026324868677190635
0.06502010175556511
0.06074655079422579
0.09269118831148215
0.0760962242727663
0.0712862504060922
0.025891572737468144
0.06757268464749945
0.018946721395918107
-0.00023856981957252584
0.02682271710624069
0.02819264872334227
0.05336378556781711
-0.048000937354022354
-0.03468404137542047
-0.030980516725054225
-0.13497152530697917
-0.18116216181401487
-0.17642783979824586
0.32008239101167735
0.6998457666571753
0.8319111386876056
0.5293339109870137
0.19583768169760082
-0.01522394717495813
-0.1012838148833994
-0.07632454285363485
-0.2129943174805779
-0.3328075361187839
-0.21389388412469354
-0.20286858630751245
-0.08875882218719787
-0.0849030032609531
-0.027164310695424687
-0.08330312635471294
-0.0514591058526932
0.01255350145134272
-0.07254466635597742
-0.04594932843006735
0.0451802587781049
-0.01589328829339357
0.001998963332363468
-0.006602026246374526
0.08152291117073811
0.015845147119640288
0.036438856019262875
0.04048499732012078
0.07297600616906166
0.10158631726963423
0.07104527749632746
0.09988099067942849
0.15355306900833346
0.16541287023251428
0.10536939970691872
0.12307126460328471
0.18805255056506742
0.1411496378602841
0.17612616137015605
0.1816726639611898
0.15883557038793927
0.20945877353639675
0.18705780381509393
0.2022659744123143
0.17572328487578703
0.23388414046818654
0.1643707071322112
0.193058363755191
0.1827515846031841
0.14579890412780136
0.16775861978708667
0.1534382250187908
0.13723965425560444
0.13225492630519417
0.10758332443410049
0.09904265499720125
0.07980137736936702
0.10170482201993589
0.08886130641578933
0.03289983580628071
0.05884435212200244
0.05828542397222253
0.010503772044668187
-0.04761256298360052
-0.020355131606032414
-0.017971939123437742
-0.06809528967600667
-0.019730656707260423
-0.04237034306676973
-0.08406154012215232
-0.05107866048581558
-0.08659109809342838
-0.05063111255867905
-0.0936848733290695
-0.05505830419340209
-0.07723309201775314
-0.05037318493831765
-0.14506302647694114
-0.10507426361451541
-0.09736552377574467
-0.12311273846146725
-0.07715326906381398
-0.08289717888204517
-0.0386075129363091
-0.08747867998514985
-0.04382815748020258
-0.10940569692363887
-0.08165803006060172
-0.09314943529305446
-0.11607554496300115
-0.0809999144746402
-0.05486834549967412
-0.09498329632014392
-0.12581270425554525
-0.09582187488543605
-0.09883262819666226
-0.07638585405632572
-0.1132702242065364
-0.08483020223493117
-0.10632881361906438
-0.09917813993679134
-0.09568196125551234
-0.08922482185142978
-0.07701223504429641
-0.07020966421091439
-0.0951767734573574
-0.09279658351607041
-0.07936756370340829
-0.07595845586276201
-0.09718680792890473
-0.0860239046450671
-0.07143661748408939
-0.07420959963071785
-0.10905876106537801
-0.12302202222793031
-0.13177297028301696
-0.0920390678016901
-0.0574280746250967
-0.14362774340794446
-0.05625764558166355
-0.06698717346647948
-0.07999002285749793
-0.058436491737446195
-0.06398642750736178
-0.045419836602255945
-0.04188435571678362
-0.10289823820555559
-0.11670053106582669
-0.09687623944267466
-0.05676513507718604
-0.08256634324565193
-0.09355515912432029
-0.03368366161350615
-0.062110497352512575
-0.05927758995577281
-0.0706154695385155
-0.07314567983829658
-0.07565482530480107
-0.08706013242538838
-0.032270197219879976
-0.14145144360181874
-0.08306871330971967
-0.10262139825298075
-0.0891978206091063
-0.08450592707046871
-0.08527758960632194
-0.09107335289329486
-0.03664151046180116
-0.0331819765883881
-0.029254662125484162
-0.025192344715855075
-0.035538436710670036
-0.1045286232067055
-0.059898991777163166
-0.07711007350269174
-0.12165704046552865
-0.03494782798747077
-0.07827016254187505
-0.06715573883251606
-0.0051954042215930155
-0.026411924010721406
-0.057245408364192736
0.012870685500363166
0.028653711231496435
-0.00429820169462326
0.0911955901946423
0.040185284582559704
-0.01932006801125729
-0.006824021078294352
0.010381699485760008
0.04251809685249573
0.012160039827761582
0.046072191603826466
0.006208362412725653
0.005262737470363676
0.05645011309072246
-0.0004898650263111871
0.003746919161871333
-0.0015765552261535216
0.013032324121884459
-0.0066969010974065836
-0.0433295922224918
-0.03216851362986095
-0.019463044992045715
-0.1320228356536148
-0.22630580734933756
-0.18017953199666922
-0.14501086022083862
0.4994937696525336
0.8099837211813639
0.7045623121432802
0.3453171196167863
0.07795188991601866
-0.05182929438822483
-0.08409858392965174
-0.14526541077099756
-0.17341187067186048
-0.2662606266340759
-0.1877527897943425
-0.0835789651257739
-0.05742168740140395
0.008383219353367265
-0.034653229861970766
-0.021702256232295106
0.016942244165905267
0.002286903109122196
-0.0027521680981009065
-0.007486912874296859
0.04967078806372386
0.06320357058988171
0.07701282709644057
0.06971077001293613
0.06117211532218103
0.12166714775280515
0.13167582384527976
0.12029047288143528
0.12595551140126848
0.1618537733645458
0.1773378654716104
0.174909311803847
0.20122806223783368
0.1929683123448317
0.2123905177419364
0.21958276995441253
0.18486998389638726
0.307681819477264
0.2637786257258949
0.24341526652004578
0.27058255332895187
0.2929855244949997
0.26783981416990726
0.28262931573013783
0.2778974321002022
0.2607788530782108
0.24327462958808918
0.26636429289728
0.21840420782242342
0.24414436382837423
0.25649636745873333
0.24603825261407544
0.19203044656330634
0.23234947822506438
0.20011886580614993
0.2401337018401048
0.16828957976970216
0.15938045331466533
0.17633538722054207
0.2007162509760557
0.18471326602808738
0.10968050107984524
0.09773496854865374
0.09447963691232229
0.09895883138392239
0.10050622490596031
0.09123824330094721
0.05483581877613448
0.05157356429267871
0.0441164996320933
0.0695395414572372
0.069157850770507
0.0545079000621028
0.037376812046643226
0.03315536201252277
0.06666049807789629
0.06927974601998586
0.007687107107293245
0.037934500590244044
0.08878982792801174
0.04649237220826153
0.07488449704604973
0.08250136709624609
0.08326591628450378
0.05017270928589368
-0.0002159891163153201
0.06135062296753979
0.05261142906175267
0.05260141529696833
0.10040493375936146
0.04294264446875682
0.09840442892896127
0.05706473985506784
0.12078852700801848
0.010163759002380084
0.05518377090311902
0.04684248137341212
0.04079206801278712
0.10116606208731603
0.05259561396927466
0.09056618367115153
0.09328591325679818
0.10141607944863046
0.1392433337258246
0.04326950363268944
0.03220413887351625
0.08293759040667265
0.05630895691061747
0.07836759745303361
0.05266400177160295
0.040321736008568414
0.104533923621571
0.0740250090044003
0.08304532359271462
0.07305877603340488
0.07755310940485068
0.07039380885059965
0.0806221424447051
0.06669433411077566
0.08172259556350897
0.06202656845240183
0.056146464096284356
0.0804371933506829
0.09903132597082584
0.0921348564773553
0.0537189068803414
0.11117116481785126
0.10427460395529348
0.07331139461305282
0.08670596553587144
0.1061070857543467
0.013262420450527505
0.11957819307976945
0.08435073541302475
0.08862806327232269
0.07364075091196955
0.06299802033894177
0.08773431099610982
0.09038881090593609
0.11494559331052277
0.0672794113597571
0.09830681329880263
0.11947616812538976
0.0778149010758632
0.10211696981659228
0.11552147194473578
0.08967582755745143
0.07900383527634698
0.13507941745725813
0.0981224408501824
0.06591087145927162
0.08021940943280474
0.06986069668836128
0.04173660866806691
0.09815728076135438
0.10966134120540325
0.08670877785120189
0.09944766665176466
0.07361555766107525
0.09017333716305287
0.10351844554655948
0.11687171414215881
0.14879402393715335
0.14689480011160075
0.16767369062194468
0.10579659271616756
0.19219700333596082
0.1833076460785706
0.2330987074958631
0.15671610234512964
0.21694111360861262
0.20661917715301462
0.17803180559186849
0.16524648178895118
0.1458225338905335
0.11476544182565361
0.14557379475716087
0.18998011488877442
0.15362193742768998
0.11795840963555791
0.10797969645739704
0.13378019807830563
0.12348843781900959
0.06593808157553936
-0.0573056004064856
-0.11723235848011214
-0.03921739558287452
0.4383488949178384
0.8337707302047314
0.9921750803683927
0.6937650835310614
0.27937879266098
0.09750977945563949
0.08530819042880426
0.014790295369541651
-0.12023219469205713
-0.15391369476904868
-0.12567019462371753
-0.018659585633444716
0.04077459088511331
0.08608717920284796
0.07081731003628516
0.06364068630980989
0.06575814958105831
0.11035728347934427
0.10059921387236023
0.08796171836853232
0.08017785119059735
0.1000039790944637
0.10216439419968894
0.12259907775786028
0.1633418807139209
0.1775623934497838
0.16644294182106725
0.19426903592656153
0.17176287936662704
0.22186367582091399
0.20782955628886857
0.20579189132041015
0.25852919950890124
0.2620754005800937
0.27890118772288136
0.28214594132923343
0.2777882449341891
0.2744514392398636
0.3244448654761229
0.35535298132360016
0.31538640605620466
0.3588056921624459
0.24761538284499005
0.3074908982812482
0.28805357201738035
0.3737821773630025
0.32737489364838757
0.2638340905092832
0.32982977727258317
0.28717917765249174
0.27507982224522415
0.2568336919529634
0.23828937467841213
0.28651215693258814
0.20358623758811467
0.2182412964471966
0.23703444397862583
0.18103385014327775
0.17844172788108603
0.1903576227745825
0.1389302652482504
0.10706262743089338
0.14437568450938226
0.11766710796602387
0.05023681946477573
0.1396643502751283
0.10559790759130462
0.047308936476399284
0.02528259757927879
0.04542839679418602
0.06348437392508705
-0.03903647101590346
0.0802048175575778
0.037736075045085554
0.012115587907050761
-0.014568631547096726
0.011109883314718478
0.0147767232133123
0.015750800524712928
0.03133529507049198
0.02256162478789632
0.020352719294174124
-0.0038267683352778362
0.043093735918963955
0.0591769569583917
0.01739661241397103
0.0014573490538181335
-0.018908922490416175
0.022577158751072763
0.004952209312624248
-0.00032072030419243386
0.033494479540321725
0.015086791406003225
-0.03586668544351455
0.03303601671341312
0.004080752986132458
-0.011092470641442581
-0.019406950607744236
-0.019700462780307945
-0.013478125297544642
-0.018354755671372236
-0.021138378460740636
-0.013229290402734429
-0.05135035865876447
-0.027410935969660568
0.02610285736597586
0.007689980091321924
-0.060852804354412704
-0.014282092635120057
-0.048749341874175414
-0.01549285115822108
-0.05050925719629693
-0.026555468583715706
-0.025715786019781053
-0.07164109392473471
-0.01450448432703693
-0.06754020723762409
0.0051375537112663535
-0.03864144294277923
0.006974761053755862
-0.03675812218518905
-0.033883665764139884
-0.030268161011782917
-0.057254516017671134
0.018785918945058138
-0.00967444256164374
-0.018454418604466723
-0.007683499155162228
-0.035662001680453546
-0.03285957226781212
-0.06515210608708943
-0.057607468406319466
-0.021754097176152773
-0.04782951775824782
-0.12629241519767564
-0.03254855975316726
-0.05045780507805226
-0.04868436625940611
-0.08478256738847818
-0.0739200098467881
-0.08853319656415183
-0.03089816088270669
-0.07403242665287228
0.007329241282854303
-0.04237448233281396
-0.051617760322558916
-0.05167688918167731
-0.05869565256947607
-0.05652026995933707
-0.11234346591539351
-0.07189667692585335
-0.05368205260216354
-0.08599889468258645
-0.02496748199946886
-0.08135856969391449
-0.09648490670576848
-0.06884538893069818
-0.03993801553723801
-0.08501521958883407
0.010101877678871092
-0.033684047904145295
-0.006362070100558672
-0.004570388793457861
-0.03727991346880224
0.011088642570154158
0.002939413964452123
0.007370149038469141
0.046425316301029036
-0.013238091091168944
0.014603428405246616
0.059792930911367934
0.05138169135290148
-0.03025623408080105
0.017302570424432104
-0.03313370042794432
-0.01645204143846951
-0.02448217240524518
-0.022645685177701262
-0.027058249265504992
-0.09049390765060375
-0.07313616279684218
-0.09512103061373012
-0.037883255048572324
-0.11673541585224849
-0.17462108906576837
-0.22563161065948223
-0.3040116060394076
-0.14844886128903254
0.4723997805873783
0.8012040732655313
0.7023629757105356
0.30984233229509245
-0.0016962323857774714
-0.12057840254055012
-0.1272404039003458
-0.24360767913316975
-0.3331803554099885
-0.3709475930479311
-0.22541629250287284
-0.12679184300569166
-0.1318831307121731
-0.021588348823853857
-0.05899543050375197
-0.11085270948047363
-0.0609121255826583
-0.05681234443503457
-0.08769985055544054
-0.05039059936174613
-0.0006397209393223
-0.003579358706014314
-0.006780422422267112
-0.04664931846092327
-0.015466379564751543
0.041322447168992534
0.02614913699625414
0.04690492279546161
0.0577384984102697
0.04145077570733538
0.09118350233503215
0.10434866005059504
0.08878685283370213
0.10047502786273127
0.1252786766202848
0.12803271114092726
0.15333917365651903
0.17682681174399678
0.1547252018000143
0.16183395724275826
0.22163367488010272
0.1784524716099491
0.22233055241088948
0.1630804309486495
0.19688177254072672
0.1269098738937991
0.1568206521080179
0.15550405370812725
0.1717532996054631
0.12652322563381513
0.11423735026083663
0.12748045992056187
0.08745744286419092
0.120807357735208
0.04953773511707175
0.07311148573517728
0.10056666283665462
0.03188043719555077
0.12428986084500211
0.0479941601486134
0.014171781309245488
-0.009096623060669254
0.02114442398903479
0.00750307145556394
-0.03744572400998705
0.003060752065267686
-0.01625870161826702
-0.023797162443122365
-0.03632337671405052
-0.11424552942058545
-0.06570055840969467
-0.05592301232968832
-0.1043116355573549
-0.103955804503131
-0.09250055162210967
-0.09105218106877033
-0.0945010985937235
-0.06375373562697276
-0.09067665518170742
-0.09141623207897902
-0.07452708070179348
-0.05776071407149195
-0.08477379850888435
-0.0626492807784922
-0.04118962870610852
-0.0896175415937764
-0.08062357842037848
-0.11599759298950156
-0.07084959594531426
-0.07492756170302795
-0.03682864327266614
-0.05239876213019864
-0.06251611336130009
-0.07187590216879412
-0.0455558610629101
-0.06737662640704568
-0.10616708654086618
-0.07056736546763877
-0.06253759288524029
-0.05605633593947976
-0.0878420962788077
-0.1406998068879491
-0.08691863774316262
-0.06411638964974306
-0.05490473770701007
0.021385702812952684
-0.07632730912092438
-0.0972273856071884
-0.06972749151824716
-0.05879766174036735
-0.08415592177134912
-0.04744290355241245
-0.11241090955473472
-0.030275367360468545
0.0005569236572080811
-0.009067161430152671
-0.07913012438691841
-0.012674162436698269
0.003135039489170723
-0.0759249900214332
-0.04642813533407392
-0.07187656627378904
-0.04976017799743302
-0.02757694744967723
-0.06010448234649355
0.014077197237322718
0.048728866410755786
-0.02148767710851799
0.010343870935557782
-0.04891485443908535
-0.02294720671026215
-0.04597312982704295
-0.11691779859805446
-0.004503563397531222
0.005901688451482148
-0.045552214629540955
-0.04299578716630489
-0.012295943692695935
0.026319465151423353
0.013944868607147987
-0.041005394110607656
-0.018499650206199845
0.018718902012526812
-0.013633692722474848
-0.02392108263412105
-0.05801077183632021
-0.01822819325635281
0.0021340144881417953
-0.008069340878746865
0.010385797924291083
-0.01590019345065588
-0.021630649423569407
0.008060045786203413
0.01045844017146712
-0.00800965433139782
0.012566178797061138
-0.038247433131570606
0.0049061395599218766
0.0045130970301095865
0.015953936806157736
0.06171499066605019
0.04765928780859394
0.061384578278125594
0.10321325319785936
0.11249032965880779
0.07635917923667374
0.10276203806395925
0.12794343202797862
0.15507122635071555
0.10354324437815803
0.06872938721721776
0.08335937457049095
0.08761052056319257
0.1290956463316822
0.09857893261080446
0.1282497668975631
0.13476117294981538
0.07698924176980883
0.08986005308588196
0.05233720290673662
0.012962852551613105
0.04195829075770191
0.03896612032858018
-0.018261583768836482
-0.1038343533731716
-0.09747260914548368
-0.131608709504817
0.4279693003310049
0.7738280952658795
0.9099329756687291
0.6217827968579518
0.2902801329147627
0.0834425037923984
0.025386505919818017
-0.0567233736851519
-0.1331888936618322
-0.20313309115044897
-0.1632842719500271
-0.0846177879093944
0.03418189046590345
0.015870260980737454
0.07916596275132023
0.045381284609088295
0.035113473435613426
0.05250364681926709
0.0582654641380979
0.09476331790043607
0.0790006647310469
0.0975755217294
0.13273521264506213
0.1380664982140717
0.1466699411210889
0.13306981760898468
0.16814071581028925
0.16050087155355197
0.18364412546386644
0.19323435405925646
0.19842273546048275
0.22738847248707109
0.28104731908398456
0.25094302127008306
0.29433155717556714
0.3074537187380214
0.28983980509328344
0.31789334303193567
0.2938524182699812
0.33397725721303173
0.3151992201321877
0.30645230982016425
0.3384880168277791
0.32598838554707166
0.3530885950271758
0.33315957263696216
0.3720006384706809
0.34826462343305076
0.3001933156511541
0.3297186830501218
0.33241362457070367
0.27858020981790266
0.3312754764570683
0.22790582789740796
0.29261979544551436
0.23877348098578496
0.24238196331912865
0.20306370816984065
0.22425604406655056
0.1983695753468548
0.2267231547834422
0.1462044753963027
0.13574357581054242
0.17540413187424247
0.1317445401963207
0.1264880395112612
0.07265278150793714
0.10022190150942803
0.09413274627366011
0.1274723947416159
0.06959516910902004
0.1220015880142
0.07329364889071238
0.04727145448123719
0.10181740215622584
0.07211426947207246
0.07620759637778038
0.076528194197868
0.12186581791655925
0.08912044835483464
0.04452355353368431
0.08959280260782204
0.07648865400798971
0.07218905742889899
0.10856919274662374
0.05878494044167627
0.07401978572024993
0.08534448869599742
0.08128332970519402
0.10802226454856208
0.13838279171391657
0.11076216825341328
0.059273579290837396
0.057846694998476576
0.08722641796163452
0.08264481416442503
0.051571945297021415
0.08620538567639678
0.13647308621656723
0.07599465306027059
0.09024330666975615
0.12074854025174593
0.11496674957726127
0.09607705770747715
0.07670070314954062
0.09489395603016348
0.09451165772132954
0.08623538503600518
0.059349855717658155
0.05968023020934202
0.12486801241153027
0.05164116603978391
0.10677727322888948
0.038248778606547865
0.06614610911921091
0.051930889026021665
0.04936030322825219
0.08892127085996247
0.1396698270980707
0.0833627745717794
0.08824930262811666
0.06307680871961151
0.12696349909559795
0.0744388810466097
0.08596053620749296
0.07912952654424298
0.09106309801513462
0.05056788276333809
0.02874356879226655
0.09280511550746756
0.09155766563846394
0.09963419459656692
0.020212721252877795
0.0649357525859943
0.07991802823049497
0.12283577373850317
0.09359622479956714
0.06737859603655041
0.0494425229785604
0.08901094624748543
0.015206437337862078
0.057595528011229524
0.07197855345920257
0.10775829053317569
0.09978615802554114
0.070864150312082
0.11797888914219283
0.07841237317499278
0.03866196292603767
0.044251086490130216
0.04078235580885502
0.10681255241461846
0.09718954252644353
0.039287420364582853
0.03675326686348862
0.07747733444596995
0.08726738291949762
0.07390142551440457
0.068363137459419
0.11018376716525137
0.12449624858826715
0.06224816656313889
0.13538854583769877
0.12491629181135776
0.10686179120327217
0.13850349135878545
0.11459461245543874
0.13420672583779442
0.12845999730177504
0.16175142188655325
0.10219985976645646
0.12157370835226222
0.1683348385069537
0.11935013497700293
0.12286752298958079
0.13464002767978356
0.1098450202028575
0.13907997326600083
0.068241215094176
0.08723983881804538
0.06340273719227278
0.10465080921489248
0.03488956186672945
0.05261311644873656
-0.07263967510968326
-0.12541171426495615
-0.14893447866625573
-0.04344571761290562
0.6152190458711195
0.8788974235260129
0.7553404869729745
0.3734639481966595
0.11733972492279295
0.0542460495818187
-0.015006068512471698
-0.10275848929198832
-0.2112361884110428
-0.26015779422414753
-0.18352590723192902
-0.0787096239059681
0.03167312216520983
-0.005604652017552547
0.019408794683350723
0.017838003088807005
0.05595917023368928
0.033359350888934595
0.0452524946756015
0.05728570688959977
0.03783926892903312
0.07249908673283528
0.05889999368396353
0.08767887212811219
0.054886269409849205
0.1295643434229626
0.11193433911649035
0.12942345656912352
0.1355459535834719
0.1265232015406479
0.1872463316111181
0.1323272225711705
0.19299617248859086
0.18409541694318116
0.2358615443913154
0.17798289456946664
0.2316631368995599
0.2669697850249283
0.2371702152264725
0.26122382523288545
0.2752485764767357
0.24576812990182395
0.2346783948583325
0.22124816918579648
0.24203975252310156
0.2762964098306348
0.22311121855273566
0.22838051041634266
0.2326948563916586
0.20629723173754133
0.2400498189196928
0.2395090712760367
0.1754411853322287
0.17679973197891918
0.14227318338166708
0.15146978232501107
0.13795194656499551
0.11670260610596267
0.04290080744037235
0.06299901083000688
0.07212964285290807
0.05046003719537388
0.012189463954635672
0.030323242256428098
0.021695426232082413
0.05473299192834268
-0.021131263847461765
-0.011436347091310039
-0.018133980246319775
-0.020190428265555813
-0.01975858410119342
-0.008360072025825198
-0.04952821582561239
-0.008478869161642975
-0.05316778031387473
-0.04203741988037747
-0.023344240447964043
-0.046313171706475934
-0.10335118929467209
-0.05756482068440327
0.007104281760392007
-0.05562779398271883
-0.08455906464807116
-0.06205553643486438
-0.05687865856132351
-0.07173854090513883
-0.08121487857632732
-0.028599441208981852
0.0033778374861600452
-0.05587600723446784
-0.11959115351015742
-0.07765688447348494
-0.08626485722629758
-0.019144458739557366
-0.09195473514294455
-0.06949852094616309
-0.0480364959862898
-0.056837991669399894
-0.07366393345961758
-0.0743419265939988
-0.0053917903158999655
-0.05303128496298349
-0.04799368181225222
-0.1312541457273999
-0.043052251284007734
-0.09714736447720948
-0.05633302446439835
-0.046518967579366556
-0.05703390411976781
-0.05542966247898576
-0.05464127871850588
-0.11217288842537405
-0.09282363793344278
-0.134112986382272
-0.08300896316533621
-0.0907262109019802
-0.060866896209837644
-0.07221224707341145
-0.11973771665428834
-0.0589749334587294
-0.06707364651948074
-0.05393175970532977
-0.07223358689051197
-0.1270655429030775
-0.07251973501640191
-0.07295951104510799
-0.06833687443735688
-0.11047770088986489
-0.0998894070258945
-0.042128777501325196
-0.06465124388280172
-0.106452621903358
-0.04799069377485529
-0.07426369884247483
-0.10191653007566147
-0.10133866300981978
-0.12219507104261598
-0.10845191607691451
-0.11949602211323991
-0.06976793048937623
-0.1310229818707144
-0.06660575106686999
-0.046974383122608425
-0.08030570769045421
-0.1215184230246684
-0.101385278396801
-0.14170173259521573
-0.06234623565931305
-0.08860759874328036
-0.10214077531514931
-0.13828370194967166
-0.08202358687765574
-0.07297091483469
-0.09706988262575077
-0.11608991814252945
-0.11108503782676937
-0.09634685218857528
-0.09966961164252293
-0.01368999250035462
-0.0345266091812524
-0.031821812125717865
-0.010471178543140686
0.005914589750631663
0.0026412423053081154
-0.008009271677157913
-0.03165561088625135
-0.004437207388569863
-0.012132507932174406
-0.019582770879425844
0.0014645724458088177
0.0489208789144319
-0.057299617522280744
-0.03151685357366658
-0.06417965055165488
-0.028501665732076784
0.014486035089967273
-0.020999094352681512
-0.011274413462892218
-0.049365220617600285
-0.0011499616871455634
-0.041218787136743304
-0.07133703119602855
-0.05536117704291743
-0.08959153248637014
-0.23408017947462786
-0.2935045861638571
-0.19857609607130317
0.26410740016506085
0.6744870688401327
0.7906871999954991
0.49820293223542916
0.12908763240902213
-0.06569236745477336
-0.08482138277577635
-0.12655837160252723
-0.26498029381396365
-0.3585463884970283
-0.2816494288729334
-0.18588106238016117
-0.09187100980274564
-0.09928401824343318
-0.08389390501989859
-0.01812087302608021
-0.07792857517642938
-0.068483002562092
-0.05008127593122013
-0.03241534416875941
-0.04770062250085701
-0.019110540076533185
-0.009698474550895642
-0.0017202989220169553
0.006295305978730753
0.009681765123966388
0.025373191428976795
0.035128180459605134
0.09282252324666349
0.11464985004283776
0.07144528729265515
0.11325630128896445
0.12442184154934692
0.12458588258830088
0.09322869593052335
0.12904386002596366
0.23548409207315177
0.20249853631687897
0.19447155984792727
0.20073160278142557
0.20420230166058714
0.1663220707078035
0.19537325716023102
0.22165835292101338
0.17289728000395532
0.2337697316530266
0.20854750008869044
0.19113189962342333
0.16207993487478867
0.1454769241290978
0.23313615360678544
0.14061070354994895
0.1327451249823379
0.16161216495190178
0.14486172183372736
0.11939803870942692
0.10599236349248002
0.13231714906335434
0.08835748925689839
0.10322676052175796
0.027730307925497095
0.09427277859458245
0.0725517837705263
0.037525162833125174
0.06148275064328632
0.05927889206528713
-0.023907396207952486
-0.027621767203050488
-0.009508337419007529
-0.044450932334784886
-0.05914971595218131
-0.024508100689374424
-0.03448419370163545
0.0008396632205240769
-0.0014410059834439038
-0.02613785970506566
-0.01636583747966556
0.010505172917936404
0.0031126727923084024
-0.03369364965468525
0.026863908501879204
-0.05154309253407511
-0.021560898665384777
0.019045816842169255
-0.03260410127588035
0.00026352403439595105
-0.0012287270119930873
-0.0035503011728462487
-0.025398530545882234
-0.012887019583189939
-0.00026902644218481
0.021612500944830037
0.01924090763347137
0.03297058391830269
0.024600642423744046
0.0375305130062023
-0.003798911282419082
0.018695213388873987
-0.013247407098872292
0.024887787019276124
-0.002337472069307166
0.008051095719708046
0.03673612799690714
-0.0009141123763150544
0.030221620285313368
-0.013550185320518068
-0.017592807291682857
0.04720329484467865
0.031125329984025434
0.018668592659905916
0.03397382501753497
0.0554090866580173
0.005496282262281434
0.024320620720364294
0.03428030503570498
0.03589827617321618
0.06636379812245502
-0.02853452126938976
0.03072028429842695
-0.007557861153114267
0.00953785248389542
0.018344066198400677
0.004665090458966349
0.04630535007868393
0.0034686245928846845
0.0469805063001992
0.049173797110616896
0.0702903190350125
0.008058234521050221
0.05263877389154758
0.042554447996721825
0.06736728977152386
-0.000689144732254315
0.05547648000652757
0.051945903683248223
0.02948390405560356
0.04896456787904474
0.023097559424341878
0.08569205419887611
0.06567220801868268
0.07283690630491381
-0.015114407524823863
0.07546802805693795
0.06564568531059013
0.06023439493491609
0.06882057847857853
0.030509893782148575
0.03930629728389143
0.021219035488687282
0.036933645477193563
0.08322987437325916
0.0888932593202428
0.023881780366996154
0.09078449938108629
0.09693581841257234
0.07130173076765817
0.07426904489087334
0.1053138856111137
0.12960922093149113
0.10463024953107967
0.13734575281608954
0.15058080727779172
0.13144674050582808
0.17673436523124425
0.12744012847206032
0.14926867620309697
0.16267827209189964
0.15388364868560978
0.18164083115083673
0.16700640922825624
0.17342623472977842
0.20486824432401862
0.17174623884565748
0.13485030601786988
0.12054444971272402
0.14656357905535414
0.17335955869545452
0.13338783916780178
0.10715459972881432
0.14072957836826347
0.09974789848870755
0.07897441550057718
0.07615409448135758
0.016644779483599777
-0.04625985277843606
-0.06565707575621106
-0.11137963850752049
-0.0016464804809001052
0.6478878574033792
1.0
0.8194365724507454
0.44801748778295064
0.19897817300918283
0.06705087564409476
0.09293208141715845
-0.025768331019726434
-0.1634175171701448
-0.14497254020203432
-0.08588082365715985
0.04998754921439847
0.08099285634285672
0.1006787575659375
0.12345464599112525
0.10771797069727479
0.09443859116822037
0.09142030976431131
0.09683156695374136
0.08752841392668728
0.11151016852721087
0.15690568428181853
0.17570021914298592
0.17734647258849026
0.1603717906288332
0.22530077620883826
0.24544045590924615
0.24310759416556413
0.25617139005379713
0.25118455640692405
0.2691135756250549
0.2978723663001966
0.2764368466479526
0.33495323098600727
0.3216280642524206
0.31612892230124934
0.3298942037259402
0.3998346770203166
0.35169902370286593
0.31955032194933436
0.33204256992985676
0.3305905935885582
0.32797849272080914
0.33794374700035223
0.37269705841196843
0.36030388246276485
0.3633076374715749
0.3341077560762014
0.3508221632907731
0.33755673304400974
0.3185981765514978
0.2944883207373526
0.2511622484905251
0.3021165706578593
0.20945407087069007
0.1991540170313347
0.25824712978317976
0.23367684257844362
0.21981402416678833
0.19996319439944865
0.16767277364706712
0.20995824538242
0.149975049266441
0.2249350141476044
0.16784166397894787
0.10234394665744745
0.13678760784797905
0.13397411388105232
0.09666773600881365
0.05808934150339008
0.05326592787475015
0.07145446905305768
0.08164178917401371
0.037101509941443823
0.08638953714518291
0.06463607429551846
0.01898415231737027
0.04663916357697434
0.0815377490165634
0.12242409287820791
0.022567535981956644
0.04419643316150082
0.07694430230316428
0.041313557577550224
0.045095826297091246
0.09782802171712629
0.018698780250036726
0.05707109498267058
0.07375356824289218
0.10711142848832683
0.05180651655138402
-0.017645388239078054
0.0259952191927236
0.0099077061455597
0.09190166134995546
0.05682470451474775
0.06685170727045547
0.0496381027902055
0.05099339076786987
0.06629468387015837
0.027149642824759852
0.05520037895527921
0.07750217997427415
0.040476721722858613
0.04199131173065926
0.04335725221957177
0.06310315717530658
0.05022690563678787
0.05863779822870503
0.025164164873669487
-0.002505625697298807
-0.005381586079760752
0.05121524429017424
0.03627628310630524
0.024610416010454057
0.04507122477413777
0.05927026392561466
0.08241511941500451
0.03135151880708579
0.03144948247549362
0.022826501813770286
0.03219600390512996
0.025523938783873434
0.05933211357176072
0.035930446818741114
0.062320985762348416
0.05707042960351662
0.04086956677410448
0.04851245766652556
0.024448045868206286
0.07390857890506802
0.0672013033661217
0.024004632454239283
0.03975010365446516
0.038867716945889585
0.02410819209253065
0.005470119996384563
0.031011281486451586
-0.0014226784147177466
0.005585054155124496
0.04239009848505746
-0.011358956090707615
-0.013554310724156887
0.012554721923557322
-0.047799103075245326
0.034710009115647325
-0.007755249543173737
0.03951041231182974
-0.00408455928139749
0.013562094054450925
-0.002254490969066777
0.016357380184196798
-0.08098851947937927
0.024164307424144858
0.0012142597143718545
