t,signal
0.0,0.002673193872271121
0.004,0.03209702148841112
0.008,0.03859218170750533
0.012,0.021577193662010406
0.016,0.04441788767381606
0.02,0.043668312136756364
0.024,0.04760535686486797
0.028,0.05979170369641716
0.032,0.08606678760363949
0.036,0.06411471259632284
0.04,0.09290111560739578
0.044,0.07717596502769856
0.048,0.1272005509437176
0.052,0.09322831442692532
0.056,0.10920795930367758
0.06,0.11687397246673178
0.064,0.08002653062803382
0.068,0.10150549419405404
0.072,0.08082224648323606
0.076,0.11798445450191099
0.08,0.10263759674016781
0.084,0.09640427328578992
0.088,0.09310239898868332
0.092,0.11064822325615674
0.096,0.08185391589391938
0.1,0.04667867080447957
0.104,0.05990332362529118
0.108,0.04726693065407845
0.112,0.09332501589163476
0.116,0.062082934994957116
0.12,0.05924067082371911
0.124,0.041041475129866764
0.128,0.03725664038502572
0.132,-0.09282918473497813
0.136,-0.14847084057612708
0.14,-0.10825524584125164
0.144,-0.05389654580389007
0.148,0.5514315933509807
0.152,0.8494483143025088
0.156,0.854004240323693
0.16,0.6100326178782712
0.164,0.25502736678200477
0.168,0.09913153687703946
0.172,0.037430846117723945
0.176,0.02652569021085633
0.18,-0.06687389576875363
0.184,-0.16905592181688503
0.188,-0.1832380185653579
0.192,-0.1943311489445801
0.196,-0.06450906384276159
0.2,-0.01251639752237011
0.204,0.03507320181413633
0.208,0.03826838894354549
0.212,0.05711964830641153
0.216,0.050954076747530976
0.22,0.10064079012430747
0.224,0.06450382012659868
0.228,0.07946224515791914
0.232,0.08746498057949602
0.236,0.10181468989749108
0.24,0.09384265273496885
0.244,0.15143713557034702
0.248,0.10787391150772342
0.252,0.11302976137631239
0.256,0.1477571308254089
0.26,0.15446299910743558
0.264,0.1347051222709841
0.268,0.20028705851486736
0.272,0.18368093447839784
0.276,0.19233182951878244
0.28,0.24073698148518585
0.284,0.22003237874673007
0.288,0.2489795849745789
0.292,0.2620897138282642
0.296,0.26339225611479194
0.3,0.2758967752298306
0.304,0.3188685795410427
0.308,0.2947016408022231
0.312,0.30305541609795084
0.316,0.304262284899072
0.32,0.31978346181916933
0.324,0.3303630041749284
0.328,0.32555684315782246
0.332,0.33757628354324604
0.336,0.3674401424741747
0.34,0.34158326224794555
0.344,0.3470090006813445
0.348,0.3722601215860926
0.352,0.31044040503759746
0.356,0.33578723644514075
0.36,0.3455583336370434
0.364,0.3269195255001803
0.368,0.29489762931744035
0.372,0.3215538648908852
0.376,0.2924659555412976
0.38,0.2985019560958883
0.384,0.26190105261671176
0.388,0.2944412595020779
0.392,0.2553424501861296
0.396,0.2590381818132369
0.4,0.2196036684586171
0.404,0.23769774977920471
0.408,0.24168090701089864
0.412,0.2511703565327476
0.416,0.1831073868326793
0.42,0.2206995743420643
0.424,0.1890175062292784
0.428,0.1735446231335263
0.432,0.1831496336888789
0.436,0.12700916854108868
0.44,0.1450548574177471
0.444,0.1663733937372645
0.448,0.10214853649176782
0.452,0.10551173424796031
0.456,0.10489733357605915
0.46,0.06258679536142202
0.464,0.06978225227638764
0.468,0.07088718054372763
0.472,0.06460743149853211
0.476,0.08871796823624711
0.48,0.1179819105747038
0.484,0.10148005678441013
0.488,0.08321408629641265
0.492,0.07915429742049508
0.496,0.09006089208275617
0.5,0.0959956010468582
0.504,0.09820633262480054
0.508,0.06796829541500593
0.512,0.11494434247149511
0.516,0.06985909951966675
0.52,0.1287451722042087
0.524,0.10131064357262581
0.528,0.09030388127003525
0.532,0.06920587661883407
0.536,0.11932770280856737
0.54,0.10139146654187721
0.544,0.07171958846153903
0.548,0.09883669304247483
0.552,0.08154720136749241
0.556,0.08425588100114698
0.56,0.09839192535213696
0.564,0.08190329539187156
0.568,0.06721030993944453
0.572,0.08813746427489032
0.576,0.08610574843421416
0.58,0.07125129931116725
0.584,0.07855170600387917
0.588,0.07269853147258158
0.592,0.09650354254317245
0.596,0.06560074866313303
0.6,0.06313861140141852
0.604,0.06974413847761073
0.608,0.07035870348480901
0.612,0.06871544444119813
0.616,0.05812052217624495
0.62,0.06315594629583483
0.624,0.07672438265634773
0.628,0.09195767829313888
0.632,0.0802712354848591
0.636,0.08745794885193954
0.64,0.07869306003543469
0.644,0.08580126849311165
0.648,0.06470413930998399
0.652,0.058732706925636195
0.656,0.0840587213550826
0.66,0.08515314992379719
0.664,0.07318037605559037
0.668,0.03683433152702745
0.672,0.1004633425835184
0.676,0.0818971359148106
0.68,0.0647941767156598
0.684,0.041952980047363635
0.688,0.07622993182062367
0.692,0.04735611584917479
0.696,0.07378342115310295
0.7,0.06544507575966883
0.704,0.08387239164212172
0.708,0.11177675164497992
0.712,0.06760307006143589
0.716,0.0812580799000238
0.72,0.01949748892121894
0.724,0.07913268869839954
0.728,0.04961868017994902
0.732,0.054561823291647236
0.736,0.057804713928620466
0.74,0.030756183352584024
0.744,0.07254782385000337
0.748,0.08842443223770383
0.752,0.053306023666198014
0.756,0.05495371634346056
0.76,0.08835140697024847
0.764,0.06296913139499682
0.768,0.04573461307397387
0.772,0.06481968565060515
0.776,0.052058975070757546
0.78,0.05006253221305495
0.784,0.05220543520141687
0.788,0.08105939636534196
0.792,0.023961653654597233
0.796,0.04631244583478031
0.8,0.05137903593635939
0.804,0.07191188050627709
0.808,0.06575805224993564
0.812,0.052736160847633835
0.816,0.02956193808124091
0.82,0.059676482890190084
0.824,0.05385709579053359
0.828,0.02340096253794709
0.832,0.0669243012527904
0.836,0.05378021158730981
0.84,0.03475879671655941
0.844,0.041215912559313186
0.848,0.04308268295616181
0.852,0.06919615019105439
0.856,0.03905186029059567
0.86,0.02272672382173164
0.864,0.06606689721884201
0.868,0.05247583291314575
0.872,0.04436964198856614
0.876,0.07660871327203911
0.88,0.10926385560344347
0.884,0.07123806833507129
0.888,0.07966712214081492
0.892,0.11293279652816249
0.896,0.09141782705182663
0.9,0.08821074236832735
0.904,0.10621699107946596
0.908,0.11361633343078703
0.912,0.09364441082058896
0.916,0.1286512267798226
0.92,0.1251696498006898
0.924,0.0900757755497864
0.928,0.07620960902608806
0.932,0.14127493018433926
0.936,0.11740358656188442
0.94,0.0973382901546065
0.944,0.12992236680649794
0.948,0.06569599492317736
0.952,0.06983397249305737
0.956,0.08813434505683682
0.96,0.06428220915557303
0.964,0.04467056417223354
0.968,0.06457004682817662
0.972,0.020041034461354787
0.976,0.04946547688982612
0.98,0.029713439419146535
0.984,0.024759977038174865
0.988,-0.10241642029063351
0.992,-0.15729530894618965
0.996,-0.19989943848220892
1.0,-0.12704064966441958
1.004,0.4041252353521284
1.008,0.7577609960778868
1.012,0.8801144446915414
1.016,0.6780494825739031
1.02,0.28863389344200047
1.024,0.1004273318624829
1.028,-0.017282476419614206
1.032,-0.04093930905651216
1.036,-0.08546989020630417
1.04,-0.1790320653275852
1.044,-0.24644233130386148
1.048,-0.2569545479908369
1.052,-0.16549298220755232
1.056,-0.10017348929531526
1.06,-0.05079986224253364
1.064,-0.025810818929853274
1.068,-0.005607910283216932
1.072,0.02145203912395324
1.076,-0.024285390532736182
1.08,-0.02776799575507778
1.084,-0.024514003690390695
1.088,-0.012333165231175265
1.092,0.029092974202627808
1.096,-0.026595577272455574
1.1,0.039231269434257976
1.104,0.003689586444233531
1.108,-0.0035527646453879565
1.112,-0.012487719210518954
1.116,0.07459458594530828
1.12,0.07603131251829745
1.124,0.06384160629351783
1.128,0.08672289812810417
1.132,0.11717741470370947
1.136,0.07874693769096813
1.14,0.11288176080082012
1.144,0.10653300757364746
1.148,0.12081483242898325
1.152,0.14262217736492366
1.156,0.1398542263198239
1.16,0.15925094498408982
1.164,0.18599740993362734
1.168,0.1839902406769409
1.172,0.1801025322141822
1.176,0.1652695570904573
1.18,0.18798050089638602
1.184,0.21986186780734615
1.188,0.20487925407060673
1.192,0.21273014539296478
1.196,0.20396918137158496
1.2,0.22160947570882583
1.204,0.20733880678667702
1.208,0.22397617173551876
1.212,0.19988210922844177
1.216,0.2140165722487539
1.22,0.17093241875138962
1.224,0.17473750781673764
1.228,0.17602752851116182
1.232,0.18454441042620365
1.236,0.16154738930226548
1.24,0.14012118656766978
1.244,0.130580216221969
1.248,0.15545704099934413
1.252,0.11948585615449966
1.256,0.10747862619221035
1.26,0.08646395627821377
1.264,0.08526148534990646
1.268,0.04992573272391672
1.272,0.03434734329828368
1.276,0.04361028423054825
1.28,0.05363992060091078
1.284,0.004393817342072701
1.288,0.015825091661925694
1.292,-0.017262083250765472
1.296,-0.0008946475879476701
1.3,-0.026709647392526188
1.304,-0.027419008001596155
1.308,-0.034361393201133114
1.312,-0.04165456609705466
1.316,-0.05765608449856944
1.32,-0.06523580349279903
1.324,-0.0812601105576797
1.328,-0.10006821070986488
1.332,-0.0851902686347352
1.336,-0.0797295966737167
1.34,-0.09406127380143633
1.344,-0.08852434836210506
1.348,-0.10313414406973748
1.352,-0.06492354429103293
1.356,-0.07946441169944812
1.36,-0.08467567965774933
1.364,-0.07794571710509161
1.368,-0.11904888928481074
1.372,-0.0798462193756607
1.376,-0.10782519221855616
1.38,-0.0535286742332552
1.384,-0.0897497431017833
1.388,-0.07239688098243631
1.392,-0.08676023464848014
1.396,-0.07861527685215672
1.4,-0.07085584583380844
1.404,-0.08348785502320293
1.408,-0.0859677291370218
1.412,-0.1084919762469015
1.416,-0.0765876676400867
1.42,-0.06809631860061405
1.424,-0.06326708705569077
1.428,-0.105225150828854
1.432,-0.07502917896890009
1.436,-0.10324541508740119
1.44,-0.07305851472086881
1.444,-0.05386894829385627
1.448,-0.06112426544172589
1.452,-0.07383540436535636
1.456,-0.08712303329341269
1.46,-0.056265527583960806
1.464,-0.07051483977923038
1.468,-0.10281806725388161
1.472,-0.08708052802776942
1.476,-0.08251661512902678
1.48,-0.07884436240665521
1.484,-0.07694051574926207
1.488,-0.11222347726793441
1.492,-0.08821428301619101
1.496,-0.08657985471083654
1.5,-0.1080100394165117
1.504,-0.10297049331698344
1.508,-0.046326282926101844
1.512,-0.11700494545547785
1.516,-0.0779183017230508
1.52,-0.09400148585073075
1.524,-0.08065952979808322
1.528,-0.0727286902588608
1.532,-0.08237883241685506
1.536,-0.0923122723879578
1.54,-0.08625114068661753
1.544,-0.06969013482124312
1.548,-0.08821032599179458
1.552,-0.07800164725373815
1.556,-0.0818451636738443
1.56,-0.11150615513417299
1.564,-0.10833721682573973
1.568,-0.09259266134090481
1.572,-0.07760736264462699
1.576,-0.0651880067034715
1.58,-0.07050462484686568
1.584,-0.09193865150232709
1.588,-0.09989057067750662
1.592,-0.08522997769277763
1.596,-0.09791691703707761
1.6,-0.07920500088378384
1.604,-0.08807832690320848
1.608,-0.11401815142922887
1.612,-0.09684576379033938
1.616,-0.07355328745613299
1.62,-0.0744669264908709
1.624,-0.12076158312742671
1.628,-0.07500750999918342
1.632,-0.10795488411501372
1.636,-0.08463794558407449
1.64,-0.06115598242848603
1.644,-0.04559449355671667
1.648,-0.09031063106887091
1.652,-0.07142898298918163
1.656,-0.08746776548647654
1.66,-0.07989778311535445
1.664,-0.047413008373651415
1.668,-0.04672742398098692
1.672,-0.0648366431452713
1.676,-0.045725965021319905
1.68,-0.05925470866981617
1.684,-0.06039959513527655
1.688,-0.1036650159375565
1.692,-0.06324121011852071
1.696,-0.11880461034549986
1.7,-0.05666774711780684
1.704,-0.05774742872989446
1.708,-0.07522869462380455
1.712,-0.053109314891345266
1.716,-0.06194511255503128
1.72,-0.06135546558504325
1.724,-0.052950819964722444
1.728,-0.03629669900859144
1.732,-0.0516841701362717
1.736,-0.021397828103327812
1.74,0.009444900963424626
1.744,-0.009738637878726145
1.748,-0.014712404710447716
1.752,0.011769509095912933
1.756,0.0169233025166952
1.76,0.030946689171935948
1.764,0.01987127678690083
1.768,0.055675323460274054
1.772,0.01955135032985177
1.776,0.012528300744803668
1.78,0.02875795311357925
1.784,0.011696119162181754
1.788,0.054250901540558595
1.792,0.019310310093647573
1.796,0.039799577625915905
1.8,0.012471658364223703
1.804,0.02718920475914563
1.808,0.016091867081563394
1.812,-0.0005921847701769127
1.816,0.003728625520895519
1.82,0.026242148770734778
1.824,-0.03409838161334334
1.828,-0.01744121560132294
1.832,0.004676051693660132
1.836,-0.039277670235766254
1.84,-0.03588590733771079
1.844,-0.12634182051334364
1.848,-0.19295673817024006
1.852,-0.23225166765872005
1.856,-0.17036103023266108
1.86,0.2906185285510848
1.864,0.605214598708433
1.868,0.823899798691458
1.872,0.6857227145435377
1.876,0.38777743359123906
1.88,0.12111651898391257
1.884,0.01339594771303643
1.888,-0.05494797785097757
1.892,-0.0865983031117244
1.896,-0.15893219739036413
1.9,-0.2593151752899847
1.904,-0.2976801590407047
1.908,-0.23159988413027982
1.912,-0.09386283239563532
1.916,-0.08438971327341979
1.92,-0.01755709514457429
1.924,-0.04948484032328248
1.928,-0.018146593399167393
1.932,0.015527613822132452
1.936,-0.023671283727872514
1.94,0.002985277794488595
1.944,0.041672849082747807
1.948,-0.004185565152371174
1.952,0.046253888440246776
1.956,0.04148329506781946
1.96,0.05186646985735675
1.964,0.041721104452820186
1.968,0.08171380560951406
1.972,0.05541025549894158
1.976,0.0775643752697494
1.98,0.0878299708990395
1.984,0.11626789247970852
1.988,0.1462255516997161
1.992,0.1192276677653238
1.996,0.1836055321521926
2.0,0.15641625838267562
2.004,0.1703982458477045
2.008,0.18091858467057895
2.012,0.20740781004025322
2.016,0.2172076831896965
2.02,0.2215592366542287
2.024,0.24380863053252982
2.028,0.2507015788040494
2.032,0.2394481463377174
2.036,0.2533011499410279
2.04,0.24614027270117808
2.044,0.2648664647845841
2.048,0.26584388199640074
2.052,0.29660963381008254
2.056,0.27500241778061274
2.06,0.25271219662272565
2.064,0.2973095108582086
2.068,0.2782649698969264
2.072,0.2848293812680583
2.076,0.28176105025319337
2.08,0.26414875074038396
2.084,0.25329233379059973
2.088,0.24125995514450485
2.092,0.26176201393604875
2.096,0.263265869326409
2.1,0.23367581646534014
2.104,0.20239230672618455
2.108,0.17734150020643452
2.112,0.17884697293420734
2.116,0.15910745361609835
2.12,0.18583250632894488
2.124,0.18301427233569562
2.128,0.17280365897328526
2.132,0.1517138684365552
2.136,0.15181504234121815
2.14,0.1619010468741488
2.144,0.09774260132303075
2.148,0.11218162873316802
2.152,0.11887967581765482
2.156,0.09378847449066124
2.16,0.09279312578220703
2.164,0.08567329104248135
2.168,0.07742415925724493
2.172,0.05285910282565567
2.176,0.07562637161236033
2.18,0.04583757863011206
2.184,0.051796528395072726
2.188,0.023225245075096698
2.192,0.032920256035072454
2.196,0.07133975201303576
2.2,0.026154375050243213
2.204,0.07186448877505298
2.208,0.014396091885765485
2.212,0.05100129975739598
2.216,0.06573915391765102
2.22,0.06918310427662999
2.224,0.08786950218385922
2.228,0.05764176507379385
2.232,0.07363291170271602
2.236,0.019558339513026532
2.24,0.09428416542384394
2.244,0.07503239683859869
2.248,0.08270355176387985
2.252,0.05875050389874763
2.256,0.03958777879208771
2.26,0.0289667455309497
2.264,0.04318312607531378
2.268,0.04917327839163764
2.272,0.08012680148372406
2.276,0.04168262817896472
2.28,0.08045565826075217
2.284,0.08200051282874303
2.288,0.09595685900725862
2.292,0.06327279574114637
2.296,0.07409804423831953
2.3,0.06775478840138202
2.304,0.09619019076562568
2.308,0.07530449927046275
2.312,0.07895694746949697
2.316,0.09390523956905768
2.32,0.09010310629158087
2.324,0.09752340441572553
2.328,0.05177549616743658
2.332,0.07471023393856924
2.336,0.08482402313635064
2.34,0.07382912528929901
2.344,0.04641249209400044
2.348,0.09045143506328866
2.352,0.05513099690331384
2.356,0.08593128537604403
2.36,0.06942356208681685
2.364,0.08255140184120491
2.368,0.06473452107712846
2.372,0.07189548076868398
2.376,0.10201587226928302
2.38,0.04737917690890604
2.384,0.0737154765765959
2.388,0.07845324572173186
2.392,0.08983677140747173
2.396,0.0794018954240232
2.4,0.0669185633549465
2.404,0.09410749327686413
2.408,0.10501764384246853
2.412,0.09234638920120296
2.416,0.07283581901362522
2.42,0.07668936139624516
2.424,0.06847778239039952
2.428,0.13075841152353543
2.432,0.06099088121035338
2.436,0.09579664416980169
2.44,0.07819604221923289
2.444,0.09959060911826609
2.448,0.07451997228965293
2.452,0.09465093519857896
2.456,0.10750206897112677
2.46,0.08105893372114051
2.464,0.08763738619673744
2.468,0.08347105596735216
2.472,0.08293426675378793
2.476,0.10621615016494067
2.48,0.10926046738189744
2.484,0.12326397976295007
2.488,0.08272653097433086
2.492,0.07774110599502036
2.496,0.0863941969250324
2.5,0.09816163643090914
2.504,0.07579483682118283
2.508,0.09677501435972997
2.512,0.07274301655484944
2.516,0.09838721246538065
2.52,0.0717707458920786
2.524,0.08353462593423198
2.528,0.08248764100997243
2.532,0.10766205771693656
2.536,0.07055736804505
2.54,0.0906273131547891
2.544,0.09959318001710506
2.548,0.09444447531045523
2.552,0.08339316772990814
2.556,0.09340263071395354
2.56,0.0788025483849902
2.564,0.07753489611912254
2.568,0.08731542402424324
2.572,0.09286939500020275
2.576,0.10538755349691269
2.58,0.1031716596073465
2.584,0.1258057449969486
2.588,0.1162967068585638
2.592,0.14205311433982226
2.596,0.1529696624266645
2.6,0.0987474557971507
2.604,0.1495232407791524
2.608,0.1461793615527177
2.612,0.1580194017088291
2.616,0.1600123690659712
2.62,0.15311649929748927
2.624,0.17848836317090877
2.628,0.19420052629106105
2.632,0.15685207992941766
2.636,0.16590541525591745
2.64,0.14658217858924324
2.644,0.18163253186228134
2.648,0.19757293794438666
2.652,0.1804299583044598
2.656,0.16737177094301084
2.66,0.1489174154221959
2.664,0.1210195655969245
2.668,0.1420318353483861
2.672,0.11576285372832111
2.676,0.10708348133833026
2.68,0.12509555384426
2.684,0.07942423743116198
2.688,0.07064600903883807
2.692,0.10391254178018891
2.696,0.0827383518660008
2.7,-0.02778484693446454
2.704,-0.09176992059632665
2.708,-0.06751453941365927
2.712,-0.1065503082906727
2.716,-0.017777763998933178
2.72,0.6420607266340577
2.724,0.8980077461629914
2.728,0.8724786713894762
2.732,0.5835642431616556
2.736,0.2580719873135561
2.74,0.12751086767405753
2.744,0.03033415279108972
2.748,0.016834644059174814
2.752,-0.030656564746627885
2.756,-0.148370420844611
2.76,-0.18219998388354974
2.764,-0.15917894674659666
2.768,-0.027031869122145627
2.772,0.008298273734690534
2.776,0.04536366618597322
2.78,0.04229097427568231
2.784,0.04125648548415405
2.788,0.06541433662503872
2.792,0.07231921766973029
2.796,0.0623845592407481
2.8,0.07082216178685187
2.804,0.05207965327084645
2.808,0.09411317383790661
2.812,0.10184470634799489
2.816,0.0917376848099682
2.82,0.08233735459546172
2.824,0.09144078164110916
2.828,0.12093573151281567
2.832,0.11671046807368995
2.836,0.14815387789565307
2.84,0.1669099254108607
2.844,0.1578114131969855
2.848,0.18805471489896525
2.852,0.1898608732146427
2.856,0.2103578158352235
2.86,0.2392610479484431
2.864,0.2608731980677415
2.868,0.23515279367913688
2.872,0.23561039412600668
2.876,0.25149065961981476
2.88,0.27438866038785026
2.884,0.2595741854786001
2.888,0.2521331983318498
2.892,0.2488720215258855
2.896,0.2831855164486998
2.9,0.2506980949438724
2.904,0.26507556129858467
2.908,0.28285077267430353
2.912,0.30529238049510343
2.916,0.2749886238403828
2.92,0.30065637748297075
2.924,0.27820995224642847
2.928,0.2641410505900694
2.932,0.27576993659974636
2.936,0.274632213015212
2.94,0.2521320009047229
2.944,0.23401672805638873
2.948,0.24084663312188292
2.952,0.22097383102003706
2.956,0.20792744957643217
2.96,0.19765044509239463
2.964,0.21138708596272
2.968,0.1918385214353537
2.972,0.16573154654024388
2.976,0.16532749532066268
2.98,0.14181912966560484
2.984,0.1470579427349566
2.988,0.10325468839307506
2.992,0.11514660446772097
2.996,0.11932401634409628
3.0,0.09486988644150705
3.004,0.059550762325259604
3.008,0.07230283328537516
3.012,0.06848619181727664
3.016,0.03255920902139422
3.02,-0.0025460698028011443
3.024,0.021275694031214213
3.028,0.033970080831917084
3.032,0.022307754343321214
3.036,0.0028564714956229764
3.04,-0.0034452976053106076
3.044,0.006946839812555854
3.048,-0.023763164133985187
3.052,-0.0009038813693404332
3.056,-0.005025945203270328
3.06,-0.0047225175134034915
3.064,-0.03195017189881056
3.068,-0.05625251084242417
3.072,-0.03415889524768086
3.076,-0.020186918948839894
3.08,0.0032723058731345344
3.084,-0.03600124087483912
3.088,-0.033563535819404355
3.092,-0.03551876110273311
3.096,-0.04786300964442958
3.1,-0.016596633745557792
3.104,0.014343568767661541
3.108,-0.05333999985105728
3.112,-0.03132700685637791
3.116,-0.016853746688442948
3.12,-0.025526745486599674
3.124,-0.04331994698699052
3.128,-0.06354521868437496
3.132,-0.058799473078029206
3.136,-0.030139282157713256
3.14,-0.03930288143397818
3.144,0.0020315631826879036
3.148,-0.03448194238899006
3.152,-0.025652374286053835
3.156,-0.02184495594521797
3.16,-0.02195286539588725
3.164,-0.036456592350840984
3.168,-0.06369757221512946
3.172,-0.07586234846303426
3.176,-0.04969963345218737
3.18,-0.06338539307795277
3.184,-0.04370630328969696
3.188,-0.06078014190341369
3.192,-0.028221456726357372
3.196,-0.06882304059337262
3.2,-0.039197250917300024
3.204,-0.033709606488575856
3.208,-0.06793838592286813
3.212,-0.0678634843168656
3.216,-0.07569622850893035
3.22,-0.07624707142313575
3.224,-0.0871224593307752
3.228,-0.053176638279128156
3.232,-0.03603304679173135
3.236,-0.05842763353032652
3.24,-0.05454218590490977
3.244,-0.04265573305866459
3.248,-0.04530472658058566
3.252,-0.03832920668096288
3.256,-0.053682868666662144
3.26,-0.07149876094824426
3.264,-0.06246252424719567
3.268,-0.09192141286437248
3.272,-0.05610494311590886
3.276,-0.05631106166501762
3.28,-0.08664158844054536
3.284,-0.09825658468224696
3.288,-0.10090974354733266
3.292,-0.08141373743447934
3.296,-0.05242922416399818
3.3,-0.07580849956563954
3.304,-0.08554448396390198
3.308,-0.08341256116701506
3.312,-0.07913405041960021
3.316,-0.09379162732867401
3.32,-0.06979314742019856
3.324,-0.06526913139880555
3.328,-0.039351572224346244
3.332,-0.05159250967481043
3.336,-0.06219353027002509
3.34,-0.13308179131446385
3.344,-0.061612839882390115
3.348,-0.048640592048731786
3.352,-0.08874480917579798
3.356,-0.09591240912712029
3.36,-0.0625245708303952
3.364,-0.07775026898672975
3.368,-0.08628902767970713
3.372,-0.06081484235840873
3.376,-0.1046017452226614
3.38,-0.06349431540451043
3.384,-0.08947761684111999
3.388,-0.08734873582011846
3.392,-0.0816809610402458
3.396,-0.08699975973891809
3.4,-0.10368443389453845
3.404,-0.11393426664398106
3.408,-0.061084757503636226
3.412,-0.07967545826236783
3.416,-0.05721576821381837
3.42,-0.09570749059716196
3.424,-0.08252306200926393
3.428,-0.0776894171513112
3.432,-0.07501400357192621
3.436,-0.05216401458114788
3.44,-0.07595088450043504
3.444,-0.03210064505774398
3.448,-0.048857138964227075
3.452,-0.04431791795053599
3.456,-0.02847671710953746
3.46,-0.04851385556192973
3.464,-0.005703534055521266
3.468,-0.03968651630986596
3.472,-0.014564761548185335
3.476,-0.01349654386852802
3.48,-0.006972797524231
3.484,-0.002259219002197199
3.488,-0.022057432956807756
3.492,-0.007105373507476015
3.496,0.012300253910418293
3.5,-0.010192575624217147
3.504,0.0489606337686894
3.508,0.008140342726131851
3.512,0.016952094786450867
3.516,-0.023443239764011886
3.52,-0.01357463584751722
3.524,-0.007752590904721603
3.528,-0.031400538636408536
3.532,-0.016872809543692774
3.536,-0.06834389252470086
3.54,-0.06395779953435292
3.544,-0.06950225460948216
3.548,-0.07889323180530598
3.552,-0.05900511666947895
3.556,-0.10619934863407292
3.56,-0.20329892042246378
3.564,-0.27343020616983826
3.568,-0.24832167609327696
3.572,-0.19050812886315263
3.576,0.4287317105158968
3.58,0.6976593912743081
3.584,0.804255340047519
3.588,0.5168358773455176
3.592,0.20504868962661904
3.596,0.013279704537589412
3.6,-0.11285778301579148
3.604,-0.12589125974682613
3.608,-0.14435911396832948
3.612,-0.2623552340747627
3.616,-0.3273716864277645
3.62,-0.3162065396893658
3.624,-0.1940466713075537
3.628,-0.14318792625488172
3.632,-0.12312427925209714
3.636,-0.07855142296448746
3.64,-0.07150875738695653
3.644,-0.09756211490341442
3.648,-0.07063165212774261
3.652,-0.0814406428524072
3.656,-0.055459662646821145
3.66,-0.05417890765984363
3.664,-0.0372321874058035
3.668,-0.05429670844370609
3.672,-0.04377928791978236
3.676,-0.019988887142248727
3.68,-0.009112208174441657
3.684,-0.015175403734551477
3.688,0.033989734527774686
3.692,0.031528523133962344
3.696,0.06517067160627006
3.7,0.053515774497005245
3.704,0.06546628497587975
3.708,0.12032756973856071
3.712,0.10673865741734823
3.716,0.08932057407003005
3.72,0.09845793432857204
3.724,0.09803345302735572
3.728,0.10484934332109239
3.732,0.17167188209259562
3.736,0.16435195422887283
3.74,0.17534587283291167
3.744,0.17931163769682718
3.748,0.15624645799141332
3.752,0.18082875896621017
3.756,0.20548184181836515
3.76,0.20782283105036845
3.764,0.20129383291805195
3.768,0.21140745817702053
3.772,0.19695146810924719
3.776,0.21055253073530014
3.78,0.1809982018673128
3.784,0.19409075625535407
3.788,0.1995736965983499
3.792,0.18775273732422146
3.796,0.16794606088440311
3.8,0.20805575816630412
3.804,0.154810832769048
3.808,0.15799729600492293
3.812,0.17154463519888236
3.816,0.1396818160873628
3.82,0.13333134243168812
3.824,0.12495120333979773
3.828,0.10956186719346761
3.832,0.09904234896302258
3.836,0.10526756545994963
3.84,0.09072012495127428
3.844,0.07382805618986713
3.848,0.06290896691720546
3.852,0.04703329206213192
3.856,0.0506966072595873
3.86,0.03034604344564924
3.864,0.01571393907487946
3.868,0.024499440021603976
3.872,0.02591535674082945
3.876,-0.0022641572669365095
3.88,-0.017778979861046727
3.884,-0.011024759597901121
3.888,-0.026271185672150508
3.892,-0.02732514569351001
3.896,-0.016603337047249922
3.9,-0.032933516600630014
3.904,-0.06270653163195611
3.908,-0.01701046363136894
3.912,-0.03479395744145482
3.916,-0.0275701102976434
3.92,-0.0010293921397869657
3.924,-0.03186679894813826
3.928,-0.030472703091446493
3.932,-0.023730082578119097
3.936,-0.013898355636600628
3.94,-0.005582962320875484
3.944,-0.030761365255074894
3.948,-0.016778252927737214
3.952,-0.00583183639430307
3.956,-0.007227046957085437
3.96,-0.014701189346751757
3.964,-0.012543225659189612
3.968,-0.032266551471051653
3.972,-0.018488498384772973
3.976,-0.02480654273953795
3.98,0.026834556344180117
3.984,-0.013739231516204873
3.988,-0.02080758637799955
3.992,-0.033439494879268644
3.996,0.018484453072791333
4.0,0.004753825282142191
4.004,0.0076002962023330465
4.008,-0.015193376407614008
4.012,-0.007893357477374335
4.016,0.010719460763950053
4.02,-0.02414125775654742
4.024,-0.008352645100637282
4.028,0.026800982798767588
4.032,0.013056224594374322
4.036,-0.008486732021382505
4.04,0.00873642294485081
4.044,0.054235661029234876
4.048,0.017175178012252997
4.052,0.01960692183631456
4.056,0.02477678524100068
4.06,-0.043581323097577514
4.064,-0.005468834660378018
4.068,0.01632589331268374
4.072,0.011655998900528278
4.076,0.035176728430635205
4.08,0.01316577863110623
4.084,0.02119093815079828
4.088,0.0281332584006358
4.092,0.00993993635128502
4.096,0.03970399248015061
4.1,0.042077718357459576
4.104,0.03102122076243264
4.108,0.04200415591328872
4.112,-0.015895225473197258
4.116,0.019507766888535037
4.12,0.03968272396160418
4.124,0.045775738875301224
4.128,0.009627459846140048
4.132,0.025278723592235857
4.136,0.044548180761030946
4.14,0.022711112346513324
4.144,0.039856485914507946
4.148,0.029300348063700937
4.152,0.05718013268241559
4.156,0.06286926320053399
4.16,0.03158601464001213
4.164,0.048934850820342074
4.168,0.06066194284748757
4.172,0.05758855778956771
4.176,0.045539398672419504
4.18,0.059378997872246854
4.184,0.026407147795761043
4.188,0.048804956335270794
4.192,0.06042357012832478
4.196,0.06495475484886519
4.2,0.04460824542049184
4.204,0.029770160871436167
4.208,0.03663072106892907
4.212,0.05207479970406083
4.216,0.06333376128925616
4.22,0.06483551262350866
4.224,0.07303962025663538
4.228,0.09341401709975655
4.232,0.047757038398901996
4.236,0.05777401512786828
4.24,0.05068895279230759
4.244,0.060003590330727594
4.248,0.03895270430360541
4.252,0.060245751254426196
4.256,0.08058185271911342
4.26,0.05678549799163904
4.264,0.048227380854386354
4.268,0.07307037847000802
4.272,0.08536367936466642
4.276,0.09569870979993805
4.28,0.08260536110409221
4.284,0.06288699759872833
4.288,0.09528218878710638
4.292,0.06435535187201605
4.296,0.10760687707516031
4.3,0.0860001245667805
4.304,0.1050994480417245
4.308,0.12076027917697137
4.312,0.12967480505789
4.316,0.1322036002241985
4.32,0.1567854558987281
4.324,0.15171429579980283
4.328,0.15634640489112148
4.332,0.17942957449721522
4.336,0.15352957899065156
4.34,0.16096651281787971
4.344,0.17259772571611653
4.348,0.18190790902273787
4.352,0.1631806010530309
4.356,0.18577371230235795
4.36,0.16491525587783434
4.364,0.1697011154929402
4.368,0.1684378035463103
4.372,0.14363474369075027
4.376,0.1640276044276234
4.38,0.17255692515257604
4.384,0.12148462438103018
4.388,0.140527903150023
4.392,0.111742945661459
4.396,0.13663174790854238
4.4,0.13854577201063373
4.404,0.11574998887950573
4.408,0.10640376079592966
4.412,0.07973311753034039
4.416,-0.0011886592870083538
4.42,-0.06509027299452048
4.424,-0.07352286048612794
4.428,-0.04859388129451195
4.432,0.46908137169160824
4.436,0.7647117674843391
4.44,0.9361424366447602
4.444,0.8025136796970623
4.448,0.4338714356843132
4.452,0.21370124679301356
4.456,0.08117833556421322
4.46,0.10337125810652652
4.464,0.02240984715207723
4.468,-0.07179657323775639
4.472,-0.1447622416350753
4.476,-0.1585618688115846
4.48,-0.06707953060233325
4.484,0.03546950831060394
4.488,0.0671237835302097
4.492,0.08354787491434745
4.496,0.09563605330001726
4.5,0.08913985371730561
4.504,0.08410484935402736
4.508,0.0807798021928297
4.512,0.08380201480842886
4.516,0.09489763294696672
4.52,0.14414992588533884
4.524,0.13748685305084227
4.528,0.13643863161333736
4.532,0.11778575664146192
4.536,0.1781834442794363
4.54,0.16922024267102653
4.544,0.14953925532164208
4.548,0.16249906212845905
4.552,0.17609951382229214
4.556,0.2196779619316557
4.56,0.20687952934511303
4.564,0.24154881713832127
4.568,0.2268308891625425
4.572,0.2421656546109413
4.576,0.2968759562444804
4.58,0.25629834104810284
4.584,0.27662633505488093
4.588,0.29558683334140895
4.592,0.311801538112396
4.596,0.3197797035857606
4.6,0.3041805385446347
4.604,0.35309986804864807
4.608,0.33015302574912314
4.612,0.36045525984871507
4.616,0.319352490688281
4.62,0.35508486323241145
4.624,0.3461371694251602
4.628,0.33923498114921474
4.632,0.3597620237449135
4.636,0.320251694680142
4.64,0.3453615326146724
4.644,0.3220383969771854
4.648,0.32898182678658416
4.652,0.3337719799929457
4.656,0.3067792768582005
4.66,0.3019006714946871
4.664,0.2975463082194485
4.668,0.32728808747371635
4.672,0.2807903996380284
4.676,0.24941855611509522
4.68,0.29399397926472187
4.684,0.2659449282736404
4.688,0.23214994310580359
4.692,0.24849314610224985
4.696,0.202403905053863
4.7,0.18691831530989392
4.704,0.17023208829580777
4.708,0.19590084413061923
4.712,0.15863089850634157
4.716,0.16360387589904082
4.72,0.15242808660787277
4.724,0.13724390890939603
4.728,0.10975983593182256
4.732,0.12995227432200607
4.736,0.10236922523786648
4.74,0.09730421082428538
4.744,0.09706978095411654
4.748,0.07090635828879698
4.752,0.0745504735481016
4.756,0.06981856327410525
4.76,0.05459422795458819
4.764,0.022282603557080324
4.768,0.08402214838261583
4.772,0.056436095656828444
4.776,0.07408315436999412
4.78,0.05515462371143333
4.784,0.08081854501142209
4.788,0.06658104152809
4.792,0.02002916295823992
4.796,0.06570841261850169
4.8,0.04758353000388946
4.804,0.06650050335517861
4.808,0.047267060069237816
4.812,0.039993724574995816
4.816,0.08337924148750352
4.82,0.042587599331120204
4.824,0.04931093778903692
4.828,0.05645110948854911
4.832,0.03596586360567039
4.836,0.04670555587168329
4.84,0.03706739984490611
4.844,0.04526328631818006
4.848,0.03429491203260539
4.852,0.034200718816628846
4.856,0.03233457804933252
4.86,0.0634816322138407
4.864,0.032410959846566556
4.868,0.05314259441873494
4.872,0.04860583428214091
4.876,0.054333513483035445
4.88,0.03226032786827028
4.884,0.03621151702033324
4.888,0.006997999784667228
4.892,0.03056201237801182
4.896,0.026837417867446176
4.9,0.009275217026020605
4.904,0.015587498960512192
4.908,0.029468530688707126
4.912,0.04643517382809679
4.916,0.019752326615245324
4.92,0.015228744123807259
4.924,0.023148498401916802
4.928,0.038759212871669384
4.932,0.039144323938156984
4.936,0.05255320300964539
4.94,0.01896760743408032
4.944,-0.0015583945076222722
4.948,0.016931755934010344
4.952,-0.0006809826859500988
4.956,0.015270394570882554
4.96,0.01381914518186776
4.964,-0.00022210963821543507
4.968,-0.018321304263191646
4.972,0.003241478565588199
4.976,0.001250545143060933
4.98,0.04065008620414313
4.984,0.0018869160500881341
4.988,-0.02329828476433615
4.992,-0.00809102696875831
4.996,0.009029013712274395
5.0,0.003902191578718079
5.004,-0.01581455141614063
5.008,0.016544885647291396
5.012,0.0012530634550594847
5.016,-0.01681168050037923
5.02,-0.0022464587502155743
5.024,-0.019076250653984397
5.028,-0.0027326475481027446
5.032,-0.020103427445949437
5.036,-0.00514483400871579
5.04,0.015960220429924836
5.044,0.012191468299696891
5.048,-0.011005871477128391
5.052,-0.016027967259673082
5.056,-0.037661511238183315
5.06,-0.013501377502035321
5.064,-0.017265694991709275
5.068,-0.025658163798013677
5.072,-0.013874776548858365
5.076,-0.024139809145275755
5.08,-0.00953091541617317
5.084,-0.01865601445451923
5.088,-0.031209935020163827
5.092,-0.03182361012854954
5.096,-0.008432813317431547
5.1,-0.017346160383645472
5.104,-0.038343581690303025
5.108,-0.05085651378300275
5.112,-0.00343665628601696
5.116,-0.0020191921781961115
5.12,-0.024377542710311718
5.124,-0.046174268654824276
5.128,-0.06586289675007942
5.132,0.0007760456194867612
5.136,-0.07320886273566712
5.14,-0.013100341198500566
5.144,-0.0534099793033953
5.148,-0.02829993356418558
5.152,-0.007716636167654739
5.156,-0.010122082612101072
5.16,-0.0238995898818445
5.164,0.0020902277669683387
5.168,-0.023266978972976218
5.172,0.010211634939785481
5.176,0.018431170173923223
5.18,0.02079314009681154
5.184,0.03961521689054252
5.188,0.021143218863758532
5.192,0.036220690493160616
5.196,0.04091354071194742
5.2,0.01746502920445606
5.204,0.030912018122714713
5.208,0.07113144999023033
5.212,0.03861957487091025
5.216,0.02269516244604724
5.22,0.010220164670475923
5.224,0.027686645122124126
5.228,0.021109228106205396
5.232,0.0332979651541921
5.236,-0.014954389111578615
5.24,-0.027286801062663346
5.244,0.00584115154898557
5.248,-0.024942868353467405
5.252,-0.0434031886126816
5.256,-0.043284883982860366
5.26,-0.00741295285239474
5.264,-0.06428633384592093
5.268,-0.09835093870240015
5.272,-0.10152775891655479
5.276,-0.21456273136376675
5.28,-0.24076535147085096
5.284,-0.19815985627243285
5.288,-0.15350630770753082
5.292,0.5441317162297646
5.296,0.7720757118905919
5.3,0.6888420503825629
5.304,0.40151846333559643
5.308,0.06607013326922358
5.312,-0.036281617286471946
5.316,-0.12404805230478645
5.32,-0.10562426491139124
5.324,-0.174625950274501
5.328,-0.30070035448416066
5.332,-0.3439282162034795
5.336,-0.2851026668595614
5.34,-0.17657338543022652
5.344,-0.11232038333762676
5.348,-0.08915792740763347
5.352,-0.10139781371826939
5.356,-0.06455605295553826
5.36,-0.07825919540311534
5.364,-0.0450494844092126
5.368,-0.06519254122065445
5.372,-0.03830834766306306
5.376,-0.039925577966677415
5.38,-0.047448205380980185
5.384,0.018055453134570375
5.388,-0.057515217213710335
5.392,0.006085120311598792
5.396,-0.013830536159711854
5.4,0.022064049569809573
5.404,-0.02089865345988851
5.408,0.017720274249706156
5.412,0.015774648748640745
5.416,0.026370248131144566
5.42,0.05358568208009806
5.424,0.06337351894723124
5.428,0.07578123771029223
5.432,0.0804844199293433
5.436,0.09908095733172585
5.44,0.10669296090978977
5.444,0.10563925985347078
5.448,0.13663475662388172
5.452,0.14949430023780408
5.456,0.157429701000496
5.46,0.16700827428709286
5.464,0.15010321221799255
5.468,0.1254857185007339
5.472,0.14604679301707077
5.476,0.17797337883617417
5.48,0.20275916420546433
5.484,0.17905226760621626
5.488,0.18541770130761354
5.492,0.22436518257831303
5.496,0.1558008737445188
5.5,0.19624103349141042
5.504,0.16266467527489856
5.508,0.16110880353771875
5.512,0.15346612333373313
5.516,0.19690263140514097
5.52,0.17790789472302745
5.524,0.08507527458173977
5.528,0.14800730831071984
5.532,0.09273529218690696
5.536,0.09884766452016985
5.54,0.07865693256247706
5.544,0.0614839456185345
5.548,0.06537644334242815
5.552,0.056083161381849385
5.556,0.03449584778764365
5.56,0.0362163170381561
5.564,0.023425185107808853
5.568,-0.00957781210590647
5.572,0.0005727045512467846
5.576,-0.003198832250245764
5.58,-0.03143916879160483
5.584,-0.010214327292702238
5.588,-0.03941349356693652
5.592,-0.06887256867947356
5.596,-0.06175866797122664
5.6,-0.0949457986380127
5.604,-0.0726605313654965
5.608,-0.061337350386890754
5.612,-0.061624190835676405
5.616,-0.07786613845236863
5.62,-0.0651150875890565
5.624,-0.07241805713317645
5.628,-0.08675845370079267
5.632,-0.06561424536562208
5.636,-0.09273220022819231
5.64,-0.09389492781661687
5.644,-0.08940883251411993
5.648,-0.0892591095725852
5.652,-0.10224378581591616
5.656,-0.08493820302778542
5.66,-0.061271399503188446
5.664,-0.11039500626079254
5.668,-0.024441962415568484
5.672,-0.0859014356830919
5.676,-0.08788494604514137
5.68,-0.05735102849580534
5.684,-0.07869073881900746
5.688,-0.0844252280728362
5.692,-0.07216232027472454
5.696,-0.07456383254691842
5.7,-0.027413788869597708
5.704,-0.0681079247758031
5.708,-0.05468032470310178
5.712,-0.06067002681882898
5.716,-0.07885509320583799
5.72,-0.06655850601671533
5.724,-0.08647514525678941
5.728,-0.034691021463573106
5.732,-0.022820846554308816
5.736,-0.04491126522987368
5.74,-0.060974201592001696
5.744,-0.07405975247041231
5.748,-0.0599021926162912
5.752,-0.043233160808739395
5.756,-0.06818237620535787
5.76,-0.07976847958923299
5.764,-0.08340037978003063
5.768,-0.04534532037119684
5.772,-0.03860899998904408
5.776,-0.04289831163883965
5.78,-0.05698060111627834
5.784,-0.051278588851693334
5.788,-0.05388509637661002
5.792,-0.0637281683490194
5.796,-0.05763661435292972
5.8,-0.04052637276387085
5.804,-0.03242706620355368
5.808,-0.03230915680450157
5.812,-0.047178272521590764
5.816,-0.06161412920969841
5.82,-0.046688122585635226
5.824,-0.04096600410102101
5.828,-0.02126349889913609
5.832,-0.032115905857952404
5.836,-0.05476771149076099
5.84,-0.026163716032554286
5.844,-0.03331346420261143
5.848,-0.06168399261132768
5.852,-0.02255552500662191
5.856,-0.039903731395591314
5.86,-0.03988031524017441
5.864,-0.05508522991599989
5.868,-0.05417064518353032
5.872,-0.012885109938398967
5.876,-0.03352754751081154
5.88,-0.024069318001750797
5.884,-0.02471801831823791
5.888,-0.041599033521617604
5.892,-0.0300954844902491
5.896,-0.028941756019915468
5.9,-0.036574960279693515
5.904,-0.04096694147372221
5.908,-0.01602658877196855
5.912,-0.011827397353113523
5.916,-0.04113963524861173
5.92,-0.027339556940410563
5.924,0.0022722942886246504
5.928,0.00238238058940792
5.932,0.0012391180928059068
5.936,-0.03346791543465027
5.94,-0.015513689797250497
5.944,-0.01423848733724349
5.948,0.002392781838847773
5.952,-0.02296564930346425
5.956,-0.000100710216670225
5.96,-0.04110062571773628
5.964,0.006757486054285727
5.968,0.003352467963383528
5.972,-0.03518876080237044
5.976,0.02869106874646666
5.98,-0.019165404681325812
5.984,-0.04290830176639803
5.988,-0.004542089634113706
5.992,0.006505179796430332
5.996,0.025017703503824425
6.0,-0.006266210532520744
6.004,0.018969009599547622
6.008,0.013281540261408872
6.012,0.03566922163206253
6.016,0.03050557173612256
6.02,0.06231454559912698
6.024,0.049278179300661855
6.028,0.09050714986010443
6.032,0.0710142257463519
6.036,0.06738945417128264
6.04,0.07537243680289342
6.044,0.09102801987319464
6.048,0.11071067249838515
6.052,0.08799037422353356
6.056,0.11375325391217055
6.06,0.09319674088290945
6.064,0.11031842085865151
6.068,0.10044234796646562
6.072,0.11605030825302658
6.076,0.1285631907374461
6.08,0.1379193847531523
6.084,0.12114952549566566
6.088,0.08999706613292602
6.092,0.08922270440774152
6.096,0.07467027474552261
6.1,0.0869501019643418
6.104,0.0884151774429942
6.108,0.08774629103987401
6.112,0.06964909781512006
6.116,0.06486352949830974
6.12,0.0528053153750001
6.124,0.034433257360936276
6.128,0.028782587103283575
6.132,-0.08474572241757213
6.136,-0.14185634047576912
6.14,-0.08680612842629278
6.144,-0.03842755201352723
6.148,0.5642563699951341
6.152,0.8608397145064787
6.156,0.8731523798609913
6.16,0.5955717905441718
6.164,0.2754262332662187
6.168,0.13078150865015045
6.172,0.01513411132095113
6.176,-0.010548771100714465
6.18,-0.04134051538325831
6.184,-0.11062395559129068
6.188,-0.20401547191101982
6.192,-0.1927059464773322
6.196,-0.05605317812579836
6.2,0.018800014501338957
6.204,0.04511612276816306
6.208,0.0737798695325684
6.212,0.05306810332257789
6.216,0.060831330570978184
6.22,0.031639944634594866
6.224,0.10275347677222817
6.228,0.10387666695637918
6.232,0.08043882434776368
6.236,0.1303391847040937
6.24,0.11247805877092396
6.244,0.12052485509094363
6.248,0.14207221247857088
6.252,0.13076445428338448
6.256,0.1423296576483762
6.26,0.18378566159806872
6.264,0.14635087725135196
6.268,0.1545508838746754
6.272,0.17679004193380612
6.276,0.18969051934443226
6.28,0.2296545036370863
6.284,0.24587789322862508
6.288,0.2544918284354564
6.292,0.25732634246681146
6.296,0.2357171822939068
6.3,0.2594516366376555
6.304,0.298887838600167
6.308,0.27898836372118924
6.312,0.28221185539170857
6.316,0.3003555110359428
6.32,0.32860317202070594
6.324,0.3136547652613344
6.328,0.33305709355285884
6.332,0.33393176690928034
6.336,0.34606408336411304
6.34,0.30129677335778005
6.344,0.3684638935504345
6.348,0.35544790993172143
6.352,0.3181510237092283
6.356,0.3415880621517308
6.36,0.3061205736135202
6.364,0.33332366042702505
6.368,0.33201933823406315
6.372,0.3138182406613498
6.376,0.31388425007065696
6.38,0.30975368886878524
6.384,0.2637966439765352
6.388,0.28985139832348605
6.392,0.29318642689262947
6.396,0.2836824695213551
6.4,0.240833250360717
6.404,0.23002153332708208
6.408,0.22905919897794316
6.412,0.21831103296769439
6.416,0.16066363138806758
6.42,0.2200979766195333
6.424,0.1644608084223439
6.428,0.18536659158381041
6.432,0.183778953226147
6.436,0.19184805193372653
6.44,0.11825490072969608
6.444,0.15558938796599633
6.448,0.12251808156227222
6.452,0.11706388475240977
6.456,0.1039309025139607
6.46,0.08717037328434432
6.464,0.08463053910153087
6.468,0.10332648516480271
6.472,0.0647397241569639
6.476,0.08179283974050548
6.48,0.10028725216739913
6.484,0.10204915691147497
6.488,0.0719831051842896
6.492,0.08176666259907925
6.496,0.09109026814840585
6.5,0.07801716913686478
6.504,0.07452723520996452
6.508,0.07286548521136432
6.512,0.11603290434090878
6.516,0.10155950296161838
6.52,0.08321598450278343
6.524,0.11543925285640141
6.528,0.0881570107275895
6.532,0.08579447027333774
6.536,0.07166846036302472
6.54,0.08111794504301043
6.544,0.08200520768038567
6.548,0.0325819328194123
6.552,0.07585781246540588
6.556,0.059476282805433954
6.56,0.11003869525485736
6.564,0.08929430171993534
6.568,0.06894800068535628
6.572,0.057421283887387466
6.576,0.04552837783465406
6.58,0.07298392764444527
6.584,0.055731899612757624
6.588,0.05942159806702647
6.592,0.10155378231698314
6.596,0.09792630552554746
6.6,0.1086151221971884
6.604,0.08442307680907501
6.608,0.09896655996644302
6.612,0.10661611781676458
6.616,0.09754535367263589
6.62,0.09645370985720529
6.624,0.10562512389476825
6.628,0.0783513316100199
6.632,0.07843967660615687
6.636,0.09942299334959688
6.64,0.0790645871136024
6.644,0.0848801335151303
6.648,0.08516774021657486
6.652,0.05113574899823901
6.656,0.0788703957152746
6.66,0.08040759034196863
6.664,0.10461819965191572
6.668,0.0850668612763617
6.672,0.06605602607885995
6.676,0.10000231989635372
6.68,0.06835536240166064
6.684,0.07877894593913391
6.688,0.06490216214611413
6.692,0.06330262299130195
6.696,0.046279356221494365
6.7,0.06911913081086139
6.704,0.054580984242068004
6.708,0.045589210536462414
6.712,0.05445000008978551
6.716,0.0553423843503524
6.72,0.08301142933890245
6.724,0.06576955303955567
6.728,0.05885913050829189
6.732,0.0680673023903441
6.736,0.0623501221173647
6.74,0.05974092849804871
6.744,0.04969532469740415
6.748,0.0902639346597099
6.752,0.06069240247286314
6.756,0.041451521101065474
6.76,0.0876281106377885
6.764,0.0716467657463051
6.768,0.07201155629187894
6.772,0.08310204095996623
6.776,0.034003853801547065
6.78,0.050184614062148906
6.784,0.01866369037474922
6.788,0.09221565798408442
6.792,0.06787563039275
6.796,0.033017837858539165
6.8,0.0483659650193519
6.804,0.05255574129214774
6.808,0.06960944118692085
6.812,0.05228198235301785
6.816,0.038810892685539805
6.82,0.024787554677466694
6.824,0.02514966148872971
6.828,0.06855450951700563
6.832,0.06190078734083758
6.836,0.06980987843067385
6.84,0.008752311289426374
6.844,0.058711299901566184
6.848,0.0688026505455128
6.852,0.030626148572626497
6.856,0.02576156802536139
6.86,0.03213443922246038
6.864,0.0468452066696549
6.868,0.059048266376618634
6.872,0.06900309846954143
6.876,0.04408940415061237
6.88,0.07660362315535255
6.884,0.059192985287834794
6.888,0.07633162354655634
6.892,0.09779659006381573
6.896,0.0821911073609467
6.9,0.09796968325866941
6.904,0.11572488604587369
6.908,0.10442220753097274
6.912,0.11791821752638193
6.916,0.10402052552114291
6.92,0.11361160332409251
6.924,0.12743230031141656
6.928,0.12539213614529576
6.932,0.09696354978183572
6.936,0.0782894269295828
6.94,0.09435285437052414
6.944,0.08886969513007671
6.948,0.06882648844863902
6.952,0.09837268389716461
6.956,0.0860609025708061
6.96,0.08021229839440668
6.964,0.05315618325455817
6.968,0.035843481801481746
6.972,0.034359069231999884
6.976,0.06264003969179661
6.98,0.009160352946740702
6.984,0.01658184144072788
6.988,-0.09655026735549346
6.992,-0.13169424911899819
6.996,-0.15489219367082788
7.0,-0.09782621136296249
7.004,0.4267019163177943
7.008,0.7349729085245482
7.012,0.8626007279048067
7.016,0.6419406772638309
7.02,0.32941532143627467
7.024,0.08435523910855977
7.028,0.009044333228304505
7.032,-0.007245456557556993
7.036,-0.09044199783333223
7.04,-0.16854106130859692
7.044,-0.2843880154692251
7.048,-0.24107221056692882
7.052,-0.1684382879514235
7.056,-0.03831059411567044
7.06,-0.03477200370848043
7.064,-0.026015352546297024
7.068,-0.025952554160299998
7.072,-0.030528053482791168
7.076,-0.04211225985910881
7.08,-0.0023748063624836227
7.084,-0.008244792060332115
7.088,0.0009495021936367466
7.092,0.019428818785936247
7.096,0.00419533558266717
7.1,0.037867176341932755
7.104,0.04599106690601853
7.108,0.03836833597561657
7.112,0.047695293585029906
7.116,0.06996449347214928
7.12,0.06209341794486884
7.124,0.0789580638127341
7.128,0.08201603882108462
7.132,0.07518204090587492
7.136,0.13723949210784975
7.14,0.11694294004721163
7.144,0.15348149373197986
7.148,0.1418536600123954
7.152,0.1586665034513235
7.156,0.15880451308645438
7.16,0.18248298222351003
7.164,0.17017846598018932
7.168,0.18000935250226222
7.172,0.20079277797652328
7.176,0.21681896332230988
7.18,0.2109383758386945
7.184,0.20771404200393986
7.188,0.19169221071493464
7.192,0.20478411220987333
7.196,0.23591631640774818
7.2,0.21633074625017662
7.204,0.21509239960994003
7.208,0.22905928935963185
7.212,0.20777582367875316
7.216,0.20963416202212168
7.22,0.18030620080466414
7.224,0.18037142848082613
7.228,0.16621963083040167
7.232,0.17516428284953794
7.236,0.18659620645315125
7.24,0.1294077137066872
7.244,0.16825523742121148
7.248,0.14955065069025814
7.252,0.1113624675407972
7.256,0.11734454008267273
7.26,0.08087526722109296
7.264,0.08671627276545632
7.268,0.07829351446280146
7.272,0.07447718683371381
7.276,0.07476457255393225
7.28,0.021726340142768166
7.284,0.034743907072349166
7.288,-0.005761280642771633
7.292,-0.010447759551402093
7.296,-0.04449969865332821
7.3,-0.03186687746774648
7.304,-0.023164747614593112
7.308,-0.040121851262403335
7.312,-0.03252086648682423
7.316,-0.03974592209013597
7.32,-0.04174561185515211
7.324,-0.05952545636701701
7.328,-0.09360009118267658
7.332,-0.07169862988780824
7.336,-0.06298128387874637
7.34,-0.06913251657566193
7.344,-0.07535018100243436
7.348,-0.06811879519243152
7.352,-0.06784625319544371
7.356,-0.08662418088584649
7.36,-0.08761508522040681
7.364,-0.07246993908571243
7.368,-0.09381021129890639
7.372,-0.0939816113837114
7.376,-0.1070141814583718
7.38,-0.08366495230153978
7.384,-0.07260752893103942
7.388,-0.08493386815670342
7.392,-0.06101234639468075
7.396,-0.0899732146380525
7.4,-0.10037719155438767
7.404,-0.04958480017426616
7.408,-0.07532951837615108
7.412,-0.07234399049919368
7.416,-0.09017904615295383
7.42,-0.06587854174086571
7.424,-0.04078606444512403
7.428,-0.09322766486168833
7.432,-0.06197447917455494
7.436,-0.08769642957856966
7.44,-0.10000978603161406
7.444,-0.09523823589998508
7.448,-0.08121664928523901
7.452,-0.06857105438629771
7.456,-0.1138486930688866
7.46,-0.08708912017534681
7.464,-0.08011704143555798
7.468,-0.0703724407790572
7.472,-0.06835866229655198
7.476,-0.09749491715729354
7.48,-0.08962359116626294
7.484,-0.09363276906920377
7.488,-0.05747651614058067
7.492,-0.08535097044053222
7.496,-0.10698600263806272
7.5,-0.08803123765977561
7.504,-0.08641749674318781
7.508,-0.08716711170513997
7.512,-0.06576782796668522
7.516,-0.08063544337833685
7.52,-0.0851190707010537
7.524,-0.08736442462004539
7.528,-0.0754264978834814
7.532,-0.08528675491230334
7.536,-0.08820544327972218
7.54,-0.10452333067565808
7.544,-0.0937860164482566
7.548,-0.09125135653237394
7.552,-0.09631703363214646
7.556,-0.10432729420388129
7.56,-0.09550334438539788
7.564,-0.10949675690436474
7.568,-0.08430962065358671
7.572,-0.08090425826245796
7.576,-0.09695998877821317
7.58,-0.05984629474755174
7.584,-0.08189541985989804
7.588,-0.10443497059282367
7.592,-0.07390529270890547
7.596,-0.1108888455258832
7.6,-0.08718142168655042
7.604,-0.07713696061438649
7.608,-0.07143543097549124
7.612,-0.07407870041401567
7.616,-0.07836033241309319
7.62,-0.06447645628756622
7.624,-0.05789062597945337
7.628,-0.08169713615173398
7.632,-0.050302626546418865
7.636,-0.06545632112754635
7.64,-0.08804376863160567
7.644,-0.08656323401030205
7.648,-0.08966451734126853
7.652,-0.07200127385274926
7.656,-0.061446239962719605
7.66,-0.07863979468450881
7.664,-0.09636369193368964
7.668,-0.048232846373121994
7.672,-0.059668018495745004
7.676,-0.07397179057344985
7.68,-0.09163632345319035
7.684,-0.0402092587286328
7.688,-0.08407836993072364
7.692,-0.07007367001260684
7.696,-0.045851179761427246
7.7,-0.07657473545563673
7.704,-0.03977843774857962
7.708,-0.0877937756281518
7.712,-0.07557763928296199
7.716,-0.05544549886024654
7.72,-0.0563337718500363
7.724,-0.03882448085762131
7.728,-0.03623997701324114
7.732,-0.03363317675312264
7.736,-0.02643159666609394
7.74,0.011603375454692906
7.744,-0.030212254235540532
7.748,0.0064955470995998596
7.752,0.01873682787345123
7.756,0.019885225526505648
7.76,0.019801310259743327
7.764,0.06024014700033969
7.768,0.027720908356168233
7.772,0.01622448728186064
7.776,0.03647973089472673
7.78,0.05639054899687205
7.784,0.05552454210893391
7.788,0.017751350682628148
7.792,0.03766070017799528
7.796,0.012587598345431966
7.8,-0.00915874669751465
7.804,0.011336729474150195
7.808,-0.010319992754210878
7.812,-0.021329011490393332
7.816,0.006704028679610903
7.82,0.023636904866505305
7.824,0.00738134235681918
7.828,-0.03288470794133945
7.832,0.002913302138370549
7.836,-0.03183906294763834
7.84,-0.05559182189088771
7.844,-0.1172633095425295
7.848,-0.20365143498580265
7.852,-0.22101600486133716
7.856,-0.1858835364473359
7.86,0.27172366975794116
7.864,0.6486614218976584
7.868,0.826488948608277
7.872,0.7503610048327022
7.876,0.3933806457697471
7.88,0.12050049053953993
7.884,0.03023368292073061
7.888,-0.05813923646875533
7.892,-0.06860446447026561
7.896,-0.17065256472539583
7.9,-0.26057903558764417
7.904,-0.2867178388838091
7.908,-0.21273339667976254
7.912,-0.09299294521097161
7.916,-0.04486089133617422
7.92,-0.02930990606331843
7.924,-0.034399293110776226
7.928,-0.01747103399257187
7.932,-0.0023724042882308
7.936,0.0075984145216780865
7.94,-0.012584920792046678
7.944,0.023572904707210834
7.948,0.01488306055257
7.952,0.039643609719551755
7.956,0.061942723105532733
7.96,0.04004031898652395
7.964,0.06156089610506061
7.968,0.0966980011209552
7.972,0.06428167272377418
7.976,0.11562812828127383
7.98,0.10752462471806103
7.984,0.11015382245564391
7.988,0.1467040401102726
7.992,0.17876481697306365
7.996,0.14658702583634486
8.0,0.16575933844543164
8.004,0.15891613077444386
8.008,0.1979231037461561
8.012,0.1833843399705342
8.016,0.20851853283179042
8.02,0.20747095145133382
8.024,0.21613464945676067
8.028,0.2343113009462054
8.032,0.23081387352886454
8.036,0.2539475121170956
8.04,0.23291489472076218
8.044,0.2542985874202761
8.048,0.2713488236339285
8.052,0.28875849311322854
8.056,0.25362493754278304
8.06,0.30216229083770924
8.064,0.27653486247092235
8.068,0.2885288674074001
8.072,0.272351373851195
8.076,0.26840095527510094
8.08,0.269800535484172
8.084,0.2602778980489796
8.088,0.24514371471769694
8.092,0.26576069542464403
8.096,0.233282300550987
8.1,0.2312243347957459
8.104,0.21896981476734076
8.108,0.1892868300770238
8.112,0.18204659320562916
8.116,0.22187255953249793
8.12,0.1664543617450071
8.124,0.17494277142976913
8.128,0.16805653633064283
8.132,0.14460718289427846
8.136,0.12513964251963902
8.14,0.1317656811527181
8.144,0.0980059091013996
8.148,0.10747123580228053
8.152,0.12182896306574599
8.156,0.10435435660302304
8.16,0.10905891345599908
8.164,0.0790599292478043
8.168,0.06866746436510048
8.172,0.07959860333088822
8.176,0.06875962902661124
8.18,0.056766995829302745
8.184,0.05728751207154518
8.188,0.09466864716856306
8.192,0.05035674762211075
8.196,0.045499587896609905
8.2,0.011103749069409682
8.204,0.03097555213614324
8.208,0.0564149753640596
8.212,0.06893001475331346
8.216,0.06656696875365395
8.22,0.06448863997387523
8.224,0.07596642999670615
8.228,0.0814587567726802
8.232,0.05916097387408989
8.236,0.04369960413281254
8.24,0.06904259333067178
8.244,0.04397612516451415
8.248,0.07316344586189547
8.252,0.07707930384463021
8.256,0.07125352132855066
8.26,0.039443967714017494
8.264,0.07062043554414699
8.268,0.0545584043883345
8.272,0.06497889475443354
8.276,0.0889839552549289
8.28,0.07473821355672039
8.284,0.08375423331772228
8.288,0.06721607308325922
8.292,0.09872999020649922
8.296,0.04090612904737895
8.3,0.07451567039305056
8.304,0.0708223433106149
8.308,0.050221446603561135
8.312,0.08115875712133838
8.316,0.09226170528745828
8.32,0.0759407036002117
8.324,0.08263318931268475
8.328,0.09338540582466522
8.332,0.0729615701374877
8.336,0.07155247138134557
8.34,0.06596092644443002
8.344,0.07435762655237185
8.348,0.12126927843482617
8.352,0.09654131896807827
8.356,0.05755583589903062
8.36,0.07196172364135547
8.364,0.09006267316597494
8.368,0.11000453918792533
8.372,0.08174489423970323
8.376,0.05886477888936079
8.38,0.05583074455479621
8.384,0.05479141518112475
8.388,0.0738063548258015
8.392,0.09385260746889058
8.396,0.08455035322205821
8.4,0.09915385795082271
8.404,0.06184870818987255
8.408,0.09946521828464122
8.412,0.10135204243541848
8.416,0.10412951582752862
8.42,0.09695730894886208
8.424,0.0863214256258547
8.428,0.09939879204012056
8.432,0.08433116813334374
8.436,0.08716058789529064
8.44,0.06904876917931835
8.444,0.09607975339068694
8.448,0.04345452766581271
8.452,0.09022121219130394
8.456,0.10367761448384155
8.46,0.06927884774886191
8.464,0.07243399262147505
8.468,0.06856865631995213
8.472,0.10145825274799877
8.476,0.0747551854952032
8.48,0.07713556445985191
8.484,0.0986963040927094
8.488,0.08546642059559609
8.492,0.09164876176940501
8.496,0.12714461041868186
8.5,0.08376802766770423
8.504,0.10912333122678433
8.508,0.09852637614404167
8.512,0.09179532599733846
8.516,0.06856979070728055
8.52,0.11575012720846307
8.524,0.08180093980884416
8.528,0.10709369906336937
8.532,0.08366672415168229
8.536,0.09075507176528802
8.54,0.11944771425538007
8.544,0.100615379073754
8.548,0.07669890887890624
8.552,0.04346724740480058
8.556,0.08004431400920572
8.56,0.08412771268260809
8.564,0.0820778008784156
8.568,0.08415740055638128
8.572,0.08276366511050665
8.576,0.08918651911444733
8.58,0.11706640174338588
8.584,0.12032095949102033
8.588,0.1087382892319069
8.592,0.13452450553378473
8.596,0.13938162451297947
8.6,0.16921892694947244
8.604,0.13029260282541671
8.608,0.13233905234794097
8.612,0.14723043972621447
8.616,0.18425676923684534
8.62,0.17020288485056895
8.624,0.1615417609325577
8.628,0.15046369852658897
8.632,0.18317445100340754
8.636,0.16236250062149685
8.64,0.1967202848376912
8.644,0.16976253145020379
8.648,0.173891764630765
8.652,0.17193992244236267
8.656,0.13772785775388152
8.66,0.1515178755986187
8.664,0.12430310693584738
8.668,0.12337128082803037
8.672,0.09814445188026469
8.676,0.12070587238482863
8.68,0.10539563320090338
8.684,0.11107798692478649
8.688,0.09910674946036317
8.692,0.09327285744121187
8.696,0.08739200008109284
8.7,-0.0009754487462742508
8.704,-0.05059803878279563
8.708,-0.0820650196272176
8.712,-0.10165939423028368
8.716,-0.009418419230238959
8.72,0.6137830029397546
8.724,0.9004583457147268
8.728,0.9021596307321662
8.732,0.5504728057001687
8.736,0.2834381687971005
8.74,0.13130329247500458
8.744,0.08041092994255915
8.748,0.011737215474449916
8.752,-0.05890454231921447
8.756,-0.1628417638148527
8.76,-0.2352393503486824
8.764,-0.16136920955996797
8.768,-0.0184189509415069
8.772,0.04576577602427276
8.776,0.02794547291649297
8.78,0.06470009633387708
8.784,0.06240486025071204
8.788,0.03922192880014092
8.792,0.07006115857288985
8.796,0.05258195430300112
8.8,0.08128630883677986
8.804,0.078918543868471
8.808,0.10166130244798433
8.812,0.0939197290736714
8.816,0.11660609494196901
8.82,0.096335351583721
8.824,0.11421917033418237
8.828,0.13254020842810438
8.832,0.1332169463158665
8.836,0.17146447391154915
8.84,0.15673450625826732
8.844,0.17050638283978115
8.848,0.1734474785040066
8.852,0.20939017270208668
8.856,0.17752412828902847
8.86,0.20764266277796078
8.864,0.1891134951225274
8.868,0.21423995579291902
8.872,0.2335371772340807
8.876,0.27391719615663074
8.88,0.25328235005613436
8.884,0.27482080073787685
8.888,0.2563994978640759
8.892,0.2747026856157135
8.896,0.26969309642413475
8.9,0.2841493368021816
8.904,0.3025302850613809
8.908,0.26887490608950204
8.912,0.2843929078115493
8.916,0.2693061802984
8.92,0.2688275987296152
8.924,0.275730094761428
8.928,0.26039445094056196
8.932,0.2629769219061112
8.936,0.260542031100572
8.94,0.2542371937055444
8.944,0.26737471807359964
8.948,0.1929813544806064
8.952,0.2369835552815521
8.956,0.20888328296387587
8.96,0.19165810780172748
8.964,0.16860312121159896
8.968,0.2081422848564684
8.972,0.16119743581603538
8.976,0.15018739492908742
8.98,0.12993854319852138
8.984,0.1414728920724457
8.988,0.11216419525454499
8.992,0.11696480217167081
8.996,0.10582679333797454
9.0,0.05770236924370094
9.004,0.05182133594063548
9.008,0.0034458836157788292
9.012,0.03571552534456567
9.016,0.04214973251654644
9.02,0.04509485156411722
9.024,0.01385947597683082
9.028,-0.010685178544074945
9.032,-0.010218045019975898
9.036,0.008685587085308604
9.04,-0.016115738403506687
9.044,-0.028388062806743143
9.048,-0.021989671384331864
9.052,-0.02889581025174222
9.056,-0.01610384684731686
9.06,0.005380219450912889
9.064,-0.012921708935986997
9.068,-0.018528935679029846
9.072,0.002345735694667857
9.076,0.001932003837269659
9.08,-0.009389703917957236
9.084,-0.003447230013260469
9.088,-0.008787267814903837
9.092,-0.05398106676667177
9.096,-0.026970454382606212
9.1,-0.013706338212455501
9.104,-0.021786269822105082
9.108,-0.028755906397239593
9.112,-0.003922711736840574
9.116,-0.044290233558734335
9.12,-0.005751260354842973
9.124,-0.038168192903618024
9.128,-0.02938747411000699
9.132,-0.02719824120642733
9.136,-0.019574552164771393
9.14,-0.034569179460876606
9.144,-0.033229831482038716
9.148,-0.014590267553126143
9.152,-0.029502249093191102
9.156,-0.02722565308463292
9.16,-0.05674497818015682
9.164,-0.03654372495983519
9.168,-0.05453941729421703
9.172,-0.03472346141451624
9.176,-0.034850567997401556
9.18,-0.060764060510544844
9.184,-0.0703821612248614
9.188,-0.028085931969899794
9.192,-0.03208693100471652
9.196,-0.057264089960345585
9.2,-0.055596816044107204
9.204,-0.03441719196816427
9.208,-0.05524686621159885
9.212,-0.06016507145423581
9.216,-0.04481748565212649
9.22,-0.06911337327168447
9.224,-0.03960812194682224
9.228,-0.05563255640397956
9.232,-0.060392529561642636
9.236,-0.014893741652088255
9.24,-0.06919059065975021
9.244,-0.03374836545918622
9.248,-0.06273269198567095
9.252,-0.0647856835006966
9.256,-0.08040794561189413
9.26,-0.06300873615597866
9.264,-0.08353838886452261
9.268,-0.0810139306422732
9.272,-0.05381536613034218
9.276,-0.057300500005298044
9.28,-0.08116173338628387
9.284,-0.06387450091331688
9.288,-0.041640385716028516
9.292,-0.07340442139303371
9.296,-0.07533503449875283
9.3,-0.0440709560393415
9.304,-0.07532133274846577
9.308,-0.09209800090955662
9.312,-0.09745227938332743
9.316,-0.07232819974048509
9.32,-0.05314165135344057
9.324,-0.08466234847299171
9.328,-0.07791657506676504
9.332,-0.07424922685907448
9.336,-0.09242749978082201
9.34,-0.08174256310597347
9.344,-0.037147177088659326
9.348,-0.0692164908867876
9.352,-0.1261398073675249
9.356,-0.10175924372186956
9.36,-0.10576479466488709
9.364,-0.12011005031928332
9.368,-0.052834682231138484
9.372,-0.07470805374681633
9.376,-0.09041667009539478
9.38,-0.08907833986651374
9.384,-0.06479061704246859
9.388,-0.07679291408688606
9.392,-0.08821646133761557
9.396,-0.06653239983151477
9.4,-0.06636949718863991
9.404,-0.10702977623902817
9.408,-0.09059750533980229
9.412,-0.1015018939196477
9.416,-0.09173241590820384
9.42,-0.10235844291533341
9.424,-0.0758254232275283
9.428,-0.07761563178834863
9.432,-0.04350302822659021
9.436,-0.07128345628753828
9.44,-0.06607438108953144
9.444,-0.054788732117269916
9.448,-0.03772421868429336
9.452,-0.05107138999352201
9.456,-0.044717100268718446
9.46,-0.018666711764494557
9.464,-0.01754444285854337
9.468,-0.01878914203616928
9.472,-0.031192051448098876
9.476,-0.0015174953650452635
9.48,0.0014469053490768543
9.484,0.010087600575492262
9.488,0.016131292700718575
9.492,0.003633571980809909
9.496,0.01894434034797721
9.5,0.00694372893728857
9.504,-0.018282788422318043
9.508,0.016342113664290163
9.512,-0.009129244165915075
9.516,-0.01216877736047988
9.52,0.013531245773599375
9.524,-0.02118216625170362
9.528,-0.04200730188421007
9.532,-0.02758279356644248
9.536,-0.05149311994983314
9.54,-0.09347325979918518
9.544,-0.06504464959266576
9.548,-0.06127161669568803
9.552,-0.06894446374410543
9.556,-0.1117562329597835
9.56,-0.19572462049501785
9.564,-0.27856941869713747
9.568,-0.24339955031117527
9.572,-0.21150120612365933
9.576,0.36421516857671743
9.58,0.6997160488923952
9.584,0.7557168571223387
9.588,0.5367520767214258
9.592,0.2068697161051092
9.596,0.010545387016997112
9.6,-0.05452517379461295
9.604,-0.10251401948296707
9.608,-0.16978312126605227
9.612,-0.2551909834920394
9.616,-0.3612299784732366
9.62,-0.3305196652753778
9.624,-0.22133329009815836
9.628,-0.11460858084753636
9.632,-0.1403105460018417
9.636,-0.05593682722819239
9.64,-0.055636511998294835
9.644,-0.06462530884998977
9.648,-0.06371059026421363
9.652,-0.03882953697557743
9.656,-0.036127032723779644
9.66,-0.04670519449806476
9.664,-0.06408639941607337
9.668,-0.041492075455697636
9.672,-0.03676910448806661
9.676,-0.022806288445615504
9.68,0.003488920480492851
9.684,0.016098826121600195
9.688,0.0021073001927284325
9.692,-0.0041310401529960974
9.696,0.020701082844724016
9.7,0.06506258460766956
9.704,0.0707739772650597
9.708,0.09729933171267714
9.712,0.110778173745988
9.716,0.0922981563143175
9.72,0.09501925472274947
9.724,0.145873974436323
9.728,0.13046310755493742
9.732,0.13830301885916996
9.736,0.18150216275636327
9.74,0.16043261456415117
9.744,0.1910776992500433
9.748,0.1857884909418718
9.752,0.1935565448574838
9.756,0.194038255202336
9.76,0.19165785326921678
9.764,0.22282337553184958
9.768,0.2213407878183593
9.772,0.1777419010152703
9.776,0.21922420760928507
9.78,0.20510964016810027
9.784,0.21560843918174985
9.788,0.2168292216305066
9.792,0.20256622912519232
9.796,0.18497634772174718
9.8,0.18917538122274324
9.804,0.18792074875540898
9.808,0.12917494484477116
9.812,0.13171311491958576
9.816,0.16580207108483622
9.82,0.15151480984762444
9.824,0.18279088016088033
9.828,0.1283588628806274
9.832,0.09534810890868464
9.836,0.10327196193301942
9.84,0.10555664148382059
9.844,0.07590316995866549
9.848,0.10859636200000879
9.852,0.06186305283723318
9.856,0.04125840522729851
9.86,0.052170349342922605
9.864,0.004398319037237054
9.868,-0.0052912139124499874
9.872,0.0004018313471375391
9.876,0.02197079989646099
9.88,-0.02616133199640093
9.884,-0.0031442466278227125
9.888,-0.03612866074068252
9.892,-0.025229883455440024
9.896,0.02235118328007074
9.9,-0.033152250047677634
9.904,0.012731384679795118
9.908,-0.016866613445215395
9.912,-0.03364151709421522
9.916,-0.010715149044541383
9.92,-0.004435677467590975
9.924,-0.012979799078520881
9.928,-0.029235406892604756
9.932,-0.0055297328544417065
9.936,-0.022654364624911084
9.94,-0.014949572730651338
9.944,0.01081597839652682
9.948,-0.02631877494263105
9.952,-0.0012708970311670837
9.956,-0.02181919770438202
9.96,-0.004219836147800468
9.964,0.009826525662602366
9.968,0.0033210048809862447
9.972,-0.015523892053244226
9.976,-0.00889587077742083
9.98,0.002314426755757994
9.984,-0.030118951193045133
9.988,0.015716668282741958
9.992,-0.002315770872114999
9.996,0.0028251676723907355
10.0,0.0027256695947047256
10.004,-0.005894026484783627
10.008,-0.011634373744497009
10.012,0.009660806750168715
10.016,0.009317517534769636
10.02,0.009987213153030677
10.024,-0.007313346439168556
10.028,0.0329076589898992
10.032,-0.001193789981006579
10.036,0.01096347345367829
10.04,-0.024261878929926636
10.044,-0.010875257448766508
10.048,0.010791766127893716
10.052,0.004691478093571561
10.056,-0.0020276362557003977
10.06,-0.004636268439733331
10.064,0.03274002613016465
10.068,0.002171567989732263
10.072,0.028454423886478723
10.076,-0.0015931544286081176
10.08,0.0453456953251916
10.084,0.007080646141673741
10.088,0.012349006880333106
10.092,0.037250389259896446
10.096,0.009445149884048303
10.1,0.031781186750318824
10.104,0.002265448296420693
10.108,0.017701777789743797
10.112,0.03471539146997765
10.116,0.08098479913949122
10.12,0.006321930483218866
10.124,0.030325236118819283
10.128,0.026741906449266745
10.132,0.04025488685660437
10.136,0.025713677793565388
10.14,0.021256383532233143
10.144,0.038833406604781746
10.148,0.03647825981677976
10.152,0.06175108556169272
10.156,0.04933616571546168
10.16,0.021639825145824923
10.164,0.030429650991556492
10.168,0.03854586474868703
10.172,0.06797000634770013
10.176,0.03667491513357134
10.18,0.050731224726126414
10.184,0.05368578395615794
10.188,0.011485605627087706
10.192,0.03219379996114095
10.196,0.05396695436995091
10.2,0.06689470969463679
10.204,0.06342119017862707
10.208,0.05753753404012878
10.212,0.02212162250699111
10.216,0.05199348762646185
10.22,0.08127684658715617
10.224,0.05380401610702641
10.228,0.03865067489411766
10.232,0.04604278827223069
10.236,0.058917163975403745
10.24,0.07154786082976043
10.244,0.055272026774394654
10.248,0.0655200959930185
10.252,0.08393749730025239
10.256,0.0768414549782089
10.26,0.07154031875858125
10.264,0.0889402143160374
10.268,0.07407323152225143
10.272,0.047517207934448
10.276,0.07135740331753666
10.28,0.06930490740931738
10.284,0.07132562622897672
10.288,0.0659043370016067
10.292,0.1231506188875514
10.296,0.1213908115584047
10.3,0.1199503859919159
10.304,0.09271588860896036
10.308,0.1149904510480591
10.312,0.14292471297706597
10.316,0.1658180743850006
10.32,0.13773865318280043
10.324,0.14634058890195348
10.328,0.1495135698544698
10.332,0.156951852232475
10.336,0.15532989336957
10.34,0.15797857034740737
10.344,0.14583457813343528
10.348,0.14425694654340307
10.352,0.19926854282581027
10.356,0.16197445300925167
10.36,0.15440689453374642
10.364,0.1677864521832986
10.368,0.13464898744938086
10.372,0.1862346583187916
10.376,0.14681155580035885
10.38,0.13539783509289444
10.384,0.11565578293561644
10.388,0.11985670842191656
10.392,0.10287093465058726
10.396,0.12398298946250848
10.4,0.10935737877993973
10.404,0.13124083108895354
10.408,0.09324571409865462
10.412,0.08474570571464675
10.416,0.0009071594949300465
10.42,-0.05839952226578656
10.424,-0.10858384988216097
10.428,-0.025093239990037163
10.432,0.42657618364747857
10.436,0.7749492314684258
10.44,0.9961529949567764
10.444,0.7663539236659468
10.448,0.44435460145396277
10.452,0.2020322232494208
10.456,0.09910892079768119
10.46,0.06813380072231659
10.464,0.028885554018533596
10.468,-0.06169814679098365
10.472,-0.1400779697532
10.476,-0.1614000223201931
10.48,-0.05972213723142678
10.484,0.029051040576352005
10.488,0.08859070299429286
10.492,0.10050438658378187
10.496,0.09918838141930358
10.5,0.10310871700999603
10.504,0.1124247592870307
10.508,0.08924610799558937
10.512,0.08304982773666307
10.516,0.10011915137334088
10.52,0.1245858159055596
10.524,0.11879833956992261
10.528,0.11457261411412092
10.532,0.1536228502492461
10.536,0.15455837409309542
10.54,0.17105024206040664
10.544,0.1869866678994489
10.548,0.17747289275582318
10.552,0.19154460023942455
10.556,0.21552176512326557
10.56,0.25906821514653056
10.564,0.26553290830449494
10.568,0.2430524563380946
10.572,0.25721188017518787
10.576,0.29304500928572835
10.58,0.2805495374582208
10.584,0.2778609891410835
10.588,0.2716451961485152
10.592,0.2789791459003362
10.596,0.2974291381781265
10.6,0.31683725377381833
10.604,0.31490398255977625
10.608,0.328541180584837
10.612,0.3058474994236804
10.616,0.3244014626800451
10.62,0.3235628632989552
10.624,0.3522968628863021
10.628,0.36904402495455385
10.632,0.3279420742843007
10.636,0.3683811135051871
10.64,0.3269096340479221
10.644,0.37306328714200004
10.648,0.2872607795162911
10.652,0.3144760451887226
10.656,0.3347793102548431
10.66,0.31911979692159753
10.664,0.30102389461859386
10.668,0.2897935205161672
10.672,0.26039251505461025
10.676,0.29987918872031905
10.68,0.2625594285603563
10.684,0.22615077032744388
10.688,0.20223587990451483
10.692,0.21652997333146742
10.696,0.2418656209754997
10.7,0.1869264999983005
10.704,0.16552882867057905
10.708,0.18265627206835927
10.712,0.1798259626063557
10.716,0.14759984397253556
10.72,0.15634874804198315
10.724,0.12524569703982885
10.728,0.09973120800368428
10.732,0.12107779512312437
10.736,0.047129344444571834
10.74,0.0864563014299835
10.744,0.0577194345669826
10.748,0.08565625385260736
10.752,0.09570309782475907
10.756,0.05682127085936823
10.76,0.04330830190002295
10.764,0.05120302149648367
10.768,0.04419204482021008
10.772,0.08250185028629786
10.776,0.03956119594709973
10.78,0.0422099432114179
10.784,0.043802911449858276
10.788,0.045645109528074115
10.792,0.09438671353248348
10.796,0.04352695618657861
10.8,0.03695077352727278
10.804,0.02465423529337405
10.808,0.07899040676678759
10.812,0.046489595081329604
10.816,0.07325498050262744
10.82,0.05723512956910534
10.824,0.044489667394871715
10.828,0.07086157231939856
10.832,0.05415191802438596
10.836,0.046646957678084966
10.84,0.04244009730914002
10.844,0.03082168892806389
10.848,0.02700491884027259
10.852,0.03822751494134993
10.856,0.018268108919457522
10.86,0.011419056678840984
10.864,0.034725396807262554
10.868,0.07277713090380349
10.872,0.04179664761747087
10.876,0.04037542227751617
10.88,0.04175460849132599
10.884,0.054342306749675516
10.888,-0.01901792459556795
10.892,0.05926436673810772
10.896,0.006828334774646474
10.9,0.0007702508793699354
10.904,0.05046158651155853
10.908,0.00883888359368141
10.912,0.022398236486173395
10.916,0.01910092223417831
10.92,0.035380013058463534
10.924,0.02127647779024976
10.928,0.011987551964332205
10.932,0.001991442996049863
10.936,0.02877103099197982
10.94,0.0027282052553304673
10.944,0.04390813371508013
10.948,0.021564168692699275
10.952,0.024762693097078833
10.956,0.005758685780698883
10.96,0.02997357868236138
10.964,0.018561400471208828
10.968,0.027195332372251347
10.972,0.02657856659861728
10.976,0.010417114511583076
10.98,-0.01048124521376768
10.984,-0.018600683167838295
10.988,0.009478436550028514
10.992,0.006593567865854871
10.996,0.04532936776440637
11.0,0.001116231422137472
11.004,-0.019739429156284027
11.008,0.0002669409619230053
11.012,-0.007523459220755935
11.016,-0.010143632770810587
11.02,-0.026835037726197653
11.024,-0.00953388160763148
11.028,-0.003610211426215723
11.032,-0.0006916297806153542
11.036,-0.007863440776461138
11.04,-0.013565862225434353
11.044,-0.008403023700866333
11.048,-0.0230335884929316
11.052,-0.02466017252450677
11.056,-0.036439912830918374
11.06,-0.01062722097495106
11.064,-0.029200244442990554
11.068,-0.033867298824491174
11.072,-0.014368638048217287
11.076,-0.02290237923888799
11.08,-0.03652301254444738
11.084,-0.019406921140442835
11.088,-0.032192297854286754
11.092,-0.03475386395474071
11.096,-0.04310529581312698
11.1,0.008946969520830204
11.104,-0.03718857389302697
11.108,-0.046566559854825426
11.112,0.00903786994989917
11.116,0.0035515830190358645
11.12,-0.01045587368613472
11.124,-0.006292223579204657
11.128,-0.05635995088840503
11.132,-0.04397443814309999
11.136,-0.03180525462661067
11.14,-0.023146268312891724
11.144,-0.05372570452516574
11.148,-0.05196283775410921
11.152,-0.02428007743548893
11.156,-0.02437275697960699
11.16,-0.0038475021876277125
11.164,-0.00426792920323745
11.168,-0.011581125310401917
11.172,0.018146403485297564
11.176,0.029460303897350708
11.18,-0.02973197480714128
11.184,0.04619498937256408
11.188,0.04003479289174808
11.192,0.019839854905307153
11.196,0.03810928223981293
11.2,0.051122873477107034
11.204,0.028164396004371574
11.208,0.03644337984516683
11.212,0.014651718824069463
11.216,0.04864171740739962
11.22,0.011769963050523882
11.224,0.001653374367461762
11.228,0.03159755084863461
11.232,-0.006117522086258829
11.236,0.0022941269224754837
11.24,0.0035974374507461416
11.244,-0.022014345287391695
11.248,-0.02674116121991758
11.252,-0.04635190078723007
11.256,-0.016812699110498538
11.26,-0.036313757739792694
11.264,-0.05433382294607249
11.268,-0.06665604984168258
11.272,-0.14516919202631
11.276,-0.18428699014195976
11.28,-0.21843804745984374
11.284,-0.23193857163686676
11.288,-0.14212258175752093
11.292,0.5177628003259412
11.296,0.7961388726079768
11.3,0.7540211921122912
11.304,0.3974871686040968
11.308,0.09182356380862974
11.312,-0.02664674151697165
11.316,-0.06719816063362608
11.32,-0.11690198721196063
11.324,-0.19414525587532466
11.328,-0.31794942747556637
11.332,-0.3153288770609642
11.336,-0.27049170290281604
11.34,-0.17426152703898137
11.344,-0.10568599622798411
11.348,-0.08120132333045521
11.352,-0.07138124454126292
11.356,-0.08766631660194114
11.36,-0.07584418507188241
11.364,-0.07448576839473472
11.368,-0.06282547278221155
11.372,-0.04289803166341891
11.376,-0.0497857771802713
11.38,-0.06394276557435227
11.384,-0.03491009575691297
11.388,-0.029542315563830086
11.392,-0.02470033359831779
11.396,-0.053835438144255385
11.4,-0.015423750945068957
11.404,0.036909724690113235
11.408,0.031172781560689488
11.412,0.06258931868944209
11.416,0.030841519598402135
11.42,0.05089071724902066
11.424,0.07670633670098656
11.428,0.08484306892081066
11.432,0.12822935514472003
11.436,0.09643809900829863
11.44,0.09858395679575846
11.444,0.08109090331575737
11.448,0.17183677562759633
11.452,0.14731733511670206
11.456,0.1180010093469861
11.46,0.1284272974529721
11.464,0.16915772264393866
11.468,0.17404223917321734
11.472,0.15375973664308024
11.476,0.1621130658260188
11.48,0.1646474157524908
11.484,0.182643907589961
11.488,0.2131739822258444
11.492,0.20187999887966598
11.496,0.1539519879759596
11.5,0.16193110500059166
11.504,0.16063251325995181
11.508,0.155424591952282
11.512,0.17271225719570024
11.516,0.12665990692440324
11.52,0.1151637560973302
11.524,0.125366979429404
11.528,0.10909057759777467
11.532,0.11251375397599661
11.536,0.10083539649911766
11.54,0.12264870886319558
11.544,0.08263924097610352
11.548,0.06618930582991875
11.552,0.047012896376574846
11.556,0.027529966281988314
11.56,-0.007316218848964785
11.564,-0.015353357258779279
11.568,0.01740142559225817
11.572,-0.013434491766564749
11.576,0.0029305379743911684
11.58,-0.017157454278821656
11.584,-0.043800182168794596
11.588,-0.03480797579937109
11.592,-0.04056521446889363
11.596,-0.08014199793288908
11.6,-0.06827226398992822
11.604,-0.0726378362236109
11.608,-0.0842206324519375
11.612,-0.055052528487475376
11.616,-0.07917930064236575
11.62,-0.062217751886442386
11.624,-0.0618563411883494
11.628,-0.0647344276215364
11.632,-0.09534030631152207
11.636,-0.10201230119860971
11.64,-0.08338641032195614
11.644,-0.04874797528010877
11.648,-0.06448434856899739
11.652,-0.08236025064753658
11.656,-0.06321207674731621
11.66,-0.08056827697545771
11.664,-0.06237555059911461
11.668,-0.10962723359675004
11.672,-0.08416040200050312
11.676,-0.07390720465829512
11.68,-0.04050632256420736
11.684,-0.06084215640423981
11.688,-0.051245475032177135
11.692,-0.059849248784835954
11.696,-0.07943611430369973
11.7,-0.0820380459055056
11.704,-0.05935514279820347
11.708,-0.07522590409375388
11.712,-0.024763411040054632
11.716,-0.0738332345032912
11.72,-0.05637779467465909
11.724,-0.08447494904950338
11.728,-0.08372936574425933
11.732,-0.06718535025571831
11.736,-0.06857223384090073
11.74,-0.07613945951958986
11.744,-0.09507201397346353
11.748,-0.07930370284713004
11.752,-0.05950611693120785
11.756,-0.06324932806504352
11.76,-0.07034837489856773
11.764,-0.05766092578020723
11.768,-0.04958548083043629
11.772,-0.031306381767082045
11.776,-0.04517422707980441
11.78,-0.042175209972230426
11.784,-0.04616388864239464
11.788,-0.034586617329606176
11.792,-0.04527009923336133
11.796,-0.04079076295093864
11.8,-0.035180413503389144
11.804,-0.021896004282238087
11.808,-0.04825319907518481
11.812,-0.06726147606915665
11.816,-0.030975036912180964
11.82,-0.04794244969697669
11.824,-0.046470136597928334
11.828,-0.014510605231997155
11.832,-0.047218136244658676
11.836,-0.02364371132979649
11.84,-0.0549568442058417
11.844,-0.0480561482567174
11.848,-0.0743344703799209
11.852,-0.04759679965444598
11.856,-0.04914817303935533
11.86,-0.037141187841171375
11.864,-0.029858756083262255
11.868,-0.01374556026589958
11.872,-0.02656756733853652
11.876,-0.048198064169059335
11.88,-0.00852681457112164
11.884,-0.002880552494657482
11.888,-0.027927123663579943
11.892,-0.025851695688288916
11.896,-0.030993448066730718
11.9,-0.018263819954634244
11.904,-0.014077641497898781
11.908,-0.03614804032516597
11.912,-0.007633168192420387
11.916,-0.04126796089131281
11.92,-0.022927595462437875
11.924,-0.012011405763807739
11.928,-0.014748023418330494
11.932,-0.020989929286011337
11.936,-0.0543159738475876
11.94,-0.013515458837226602
11.944,0.017568302827064036
11.948,-0.039763950562784325
11.952,-0.011504750809116877
11.956,-0.005257444806242829
11.96,-0.02088537875341508
11.964,0.02053754032287301
11.968,-0.01992436799188483
11.972,0.016343061322412998
11.976,-0.013272058155690724
11.98,0.008918568066923718
11.984,-0.007506820919960891
11.988,-0.008983415993930637
11.992,0.0137312168044324
11.996,0.010666644777414297
12.0,-0.019736368350103714
12.004,0.008923352416518357
12.008,0.021642843435242472
12.012,0.02103576844270084
12.016,0.025101101500943735
12.02,0.010439384935216952
12.024,0.05216155679756548
12.028,0.05545710059237982
12.032,0.08145315026970947
12.036,0.07028667845375622
12.04,0.076465377970017
12.044,0.10539894507925553
12.048,0.07505888520470186
12.052,0.08463189255343288
12.056,0.07216854234886629
12.06,0.11858618610612175
12.064,0.12569801544800632
12.068,0.11998638490581241
12.072,0.09023755562819934
12.076,0.0721523746717038
12.08,0.08161543185606727
12.084,0.10262841517917264
12.088,0.08684726238940413
12.092,0.07576864422998501
12.096,0.08798525569306113
12.1,0.07361511245324157
12.104,0.06997465223624842
12.108,0.04136988286563697
12.112,0.042839724009246655
12.116,0.046338922366724135
12.12,0.03448128724146876
12.124,0.04875643825973765
12.128,0.04372201586093266
12.132,-0.06469724860562408
12.136,-0.13204735854846575
12.14,-0.13222641825251688
12.144,-0.07345681785304183
12.148,0.5510721578698414
12.152,0.8662192917314484
12.156,0.8811633064794636
12.16,0.5961503135997379
12.164,0.278646769104352
12.168,0.13437419966616634
12.172,0.07452473098060114
12.176,0.031041618111547736
12.18,-0.03893954485968833
12.184,-0.15452800359899
12.188,-0.2164636934211038
12.192,-0.18150881949348596
12.196,-0.04739317768679072
12.2,0.016947127769102035
12.204,0.03525158612366601
12.208,0.03653072212656497
12.212,0.03989246225085924
12.216,0.08038416295098492
12.22,0.05686982968902795
12.224,0.0720122075256187
12.228,0.11233190242498235
12.232,0.08840077866877807
12.236,0.11804360221214998
12.24,0.08107309699323495
12.244,0.09948440000783348
12.248,0.11141821478105854
12.252,0.12028941176355117
12.256,0.15396506416210623
12.26,0.12152519168571495
12.264,0.1735753421777413
12.268,0.16622289628025907
12.272,0.18300343517133433
12.276,0.22268410296751742
12.28,0.2360678706767751
12.284,0.224916760129249
12.288,0.2268050932906636
12.292,0.23895461422659217
12.296,0.2817826391543411
12.3,0.2812005318817546
12.304,0.28887025509510944
12.308,0.2933408140145116
12.312,0.33114182578028906
12.316,0.3138736657982863
12.32,0.3166797846123065
12.324,0.3061011890359908
12.328,0.3278764785463377
12.332,0.3288348698837704
12.336,0.33417434024120396
12.34,0.35485709721534375
12.344,0.3203933552932654
12.348,0.3222747856362631
12.352,0.32747841644851283
12.356,0.3575116719348054
12.36,0.3358849508631775
12.364,0.31515514208820666
12.368,0.3315371450827187
12.372,0.32252916967007267
12.376,0.32439813540315643
12.38,0.28739537440428076
12.384,0.2751828726419695
12.388,0.2921733500336758
12.392,0.2598388114354147
12.396,0.25803504182965303
12.4,0.2337466080495924
12.404,0.26122112126140706
12.408,0.26678697497119586
12.412,0.22258323383985618
12.416,0.18032345775570013
12.42,0.13964348313724032
12.424,0.14921561693348998
12.428,0.17836012375019958
12.432,0.13473870862744688
12.436,0.1488658612907061
12.44,0.09780850525004883
12.444,0.1433065410805748
12.448,0.12723882617514407
12.452,0.07639275187200828
12.456,0.1305955672027268
12.46,0.10586520174052011
12.464,0.09597902299248712
12.468,0.09471642971511643
12.472,0.09340200804959925
12.476,0.09118069118035677
12.48,0.09161878752152203
12.484,0.07572253811228294
12.488,0.050480925341903134
12.492,0.10134111253271705
12.496,0.08959971622211843
12.5,0.09028347278495444
12.504,0.09175527592312713
12.508,0.08047510094215972
12.512,0.0736448538541889
12.516,0.06793895640515005
12.52,0.08815279979430991
12.524,0.07200103617129214
12.528,0.1113192343258991
12.532,0.07634025925427493
12.536,0.08095724095029935
12.54,0.09908293124321017
12.544,0.09581150366396261
12.548,0.07401005753845008
12.552,0.09576023041965183
12.556,0.09312055331636436
12.56,0.060363739737848754
12.564,0.0674915360349328
12.568,0.11971983924288779
12.572,0.0665046965570986
12.576,0.06930010028346631
12.58,0.10811230570935207
12.584,0.06748682391798838
12.588,0.05917787048387884
12.592,0.08442834795241143
12.596,0.11658587100029169
12.6,0.07595735552371538
12.604,0.0577407820973634
12.608,0.09265083359161753
12.612,0.07805016302997947
12.616,0.11689329688146974
12.62,0.11285446826194953
12.624,0.08655232432149455
12.628,0.06072628029963941
12.632,0.07610786642694929
12.636,0.08421977303096877
12.64,0.08351590012564343
12.644,0.07159543360248617
12.648,0.07344692795193977
12.652,0.0781288378175418
12.656,0.056215333221276864
12.66,0.08850015323556165
12.664,0.06475614751266551
12.668,0.09632344571157431
12.672,0.07663695599961881
12.676,0.054808029232923126
12.68,0.11046171822216967
12.684,0.1110865947860892
12.688,0.06680976055978959
12.692,0.05453464463638471
12.696,0.0751688317574484
12.7,0.06300553155553937
12.704,0.10106804159034352
12.708,0.0504199610733026
12.712,0.055927446323473344
12.716,0.07940621360766438
12.72,0.04916906543425434
12.724,0.06908612230471252
12.728,0.05666633016695633
12.732,0.05121272794463327
12.736,0.08418628685100965
12.74,0.08188992406293831
12.744,0.09701475690413393
12.748,0.04482993277875716
12.752,0.06749030878229861
12.756,0.04491270055399562
12.76,0.08296410106606764
12.764,0.050498233058839874
12.768,0.10272255152461517
12.772,0.07839094708185003
12.776,0.044982175399407166
12.78,0.06464224207536165
12.784,0.03373336943388022
12.788,0.07972173632259542
12.792,0.03581776758739513
12.796,0.07008530550733942
12.8,0.03529860586207356
12.804,0.0727410666063581
12.808,0.056955722880351646
12.812,0.04671712156127022
12.816,0.05606298079396505
12.82,0.01580071789669918
12.824,0.032882779998968124
12.828,0.022471517526570936
12.832,0.05621293839187586
12.836,0.029727865609889225
12.84,0.03694060023607972
12.844,0.05026178569410881
12.848,-0.008521344250538026
12.852,0.0446845805159191
12.856,0.008251472922838586
12.86,0.037067334471575245
12.864,0.03224672325136002
12.868,0.06299772057905308
12.872,0.03666203418833925
12.876,0.07953571851221547
12.88,0.07469086041999055
12.884,0.08191217846137497
12.888,0.09263708677343106
12.892,0.10369680763346398
12.896,0.09920361822419879
12.9,0.11142437821859821
12.904,0.11424558985396961
12.908,0.12883430610750962
12.912,0.13526755786488243
12.916,0.1078248573519457
12.92,0.09166061107888868
12.924,0.1261484623100218
12.928,0.10327184157424994
12.932,0.10296365178319376
12.936,0.09944563464240508
12.94,0.09814869219958175
12.944,0.1106578278080604
12.948,0.09300522485665239
12.952,0.056320339805732166
12.956,0.06938232825318487
12.96,0.06120208777892414
12.964,0.0811294457321732
12.968,0.03566688151155063
12.972,0.05385805348339181
12.976,0.02370153950763539
12.98,0.05045166575312166
12.984,0.0007094351390947557
12.988,-0.12782321402930183
12.992,-0.17369132608333535
12.996,-0.14200031979159103
13.0,-0.10446515139596887
13.004,0.3997073383777342
13.008,0.7443627120994932
13.012,0.8554112469847104
13.016,0.664729055938312
13.02,0.3313185784489686
13.024,0.09769088135240901
13.028,0.009192740646476545
13.032,-0.021038051474596225
13.036,-0.0990165106188862
13.04,-0.19910334438730995
13.044,-0.24930780129260618
13.048,-0.26869796139617985
13.052,-0.17744995283866055
13.056,-0.0669481830627367
13.06,-0.05196381430834426
13.064,-0.008081754459322169
13.068,-0.0034180757750347074
13.072,0.0016465873425806378
13.076,-0.018059941629770822
13.08,-0.03285818914716078
13.084,0.007454566998499203
13.088,0.014511672794369187
13.092,0.020576017775722308
13.096,-0.000623712114724486
13.1,0.009742574841396998
13.104,0.018058369813997503
13.108,0.06413848430956862
13.112,0.029496861273403147
13.116,0.06102241948244013
13.12,0.10542873109670739
13.124,0.05248558739780337
13.128,0.07983354340421643
13.132,0.09554452006545402
13.136,0.10557385386378455
13.14,0.09719594569711323
13.144,0.14072354671595871
13.148,0.14666475484858818
13.152,0.14855957045510107
13.156,0.14161586014926586
13.16,0.17935691520017732
13.164,0.19517239345136042
13.168,0.1924919935566369
13.172,0.213074328736916
13.176,0.22488776148248812
13.18,0.1907586772284718
13.184,0.2269632729439199
13.188,0.19315883529634545
13.192,0.1979203455430972
13.196,0.18085052585461986
13.2,0.23104002519912967
13.204,0.23200726198092633
13.208,0.24632984753105505
13.212,0.20168490682696696
13.216,0.21150450855948644
13.22,0.17363381660528665
13.224,0.19144449894884577
13.228,0.1817481484727394
13.232,0.1565792496306975
13.236,0.1265786629918873
13.24,0.15313701317183945
13.244,0.14168463455278363
13.248,0.13512453368099878
13.252,0.08811243880967413
13.256,0.09316915665506574
13.26,0.07536657827661267
13.264,0.08258628505811912
13.268,0.060748969167040895
13.272,0.054115462283692205
13.276,0.04719571353958133
13.28,0.012655079762275217
13.284,0.024990909591598852
13.288,0.04280268389787245
13.292,-0.016083933153018398
13.296,0.012268702043095242
13.3,-0.006981356429203421
13.304,-0.022908969744140688
13.308,-0.018796807494877246
13.312,-0.034475755602140175
13.316,-0.07538184595753737
13.32,-0.05786633761988011
13.324,-0.08887594007555005
13.328,-0.08921887651533332
13.332,-0.07643332450973822
13.336,-0.04872409756305966
13.34,-0.07324842130860477
13.344,-0.06329329097130533
13.348,-0.07562362913140562
13.352,-0.1026880610674866
13.356,-0.05695733460747798
13.36,-0.04549292395728426
13.364,-0.06818751635743227
13.368,-0.06231366697812559
13.372,-0.07766672691087768
13.376,-0.10999308196425542
13.38,-0.0789081710270559
13.384,-0.12292724067644091
13.388,-0.10581704063985298
13.392,-0.08747197479726013
13.396,-0.08841708285888716
13.4,-0.08206361252460463
13.404,-0.09837453261580982
13.408,-0.08021796452222191
13.412,-0.10643517053643112
13.416,-0.07613634026732913
13.42,-0.098681994359497
13.424,-0.07860773353473235
13.428,-0.0807689496544301
13.432,-0.06878951445572457
13.436,-0.0772842500351972
13.44,-0.10201988499582923
13.444,-0.10209242909770114
13.448,-0.05536620920561948
13.452,-0.10347876661461643
13.456,-0.10939265907167955
13.46,-0.09900443403253995
13.464,-0.0819390987635517
13.468,-0.07795829309609628
13.472,-0.07985441579340052
13.476,-0.09141477571113309
13.48,-0.09936756279442228
13.484,-0.07836887499990643
13.488,-0.07780986897438368
13.492,-0.10289878648498364
13.496,-0.09266101869886721
13.5,-0.07664927181132541
13.504,-0.08726085987942722
13.508,-0.09903383843254729
13.512,-0.07163968596494058
13.516,-0.0807742290400107
13.52,-0.09417932574212257
13.524,-0.06307478168408014
13.528,-0.10014512125572082
13.532,-0.07549940889056264
13.536,-0.11701672467100228
13.54,-0.08292548466400487
13.544,-0.07510398976818276
13.548,-0.08350356757858128
13.552,-0.05327819748960001
13.556,-0.09871512389497042
13.56,-0.09691170751199421
13.564,-0.10049577508938769
13.568,-0.07658304698272336
13.572,-0.09656230771574485
13.576,-0.06533455317596391
13.58,-0.06347803438254405
13.584,-0.12003305278468783
13.588,-0.0764554526742644
13.592,-0.10138464636744372
13.596,-0.08719942166479015
13.6,-0.10785722805961241
13.604,-0.06928752391515366
13.608,-0.09551887561430533
13.612,-0.08568757056883872
13.616,-0.09916062514134505
13.62,-0.0844290108599869
13.624,-0.050053328528231106
13.628,-0.09223623925213374
13.632,-0.11058307025448483
13.636,-0.08999580343326827
13.64,-0.057232972015982375
13.644,-0.05078869284416956
13.648,-0.08058145230937773
13.652,-0.055608877070000916
13.656,-0.057907619062847866
13.66,-0.10896518794997925
13.664,-0.0641868843997353
13.668,-0.059568107558068926
13.672,-0.09634233952597296
13.676,-0.056159633005139195
13.68,-0.06557983392730247
13.684,-0.08066276394465495
13.688,-0.06394805873491852
13.692,-0.06212983949464728
13.696,-0.04226608483096538
13.7,-0.06340788957229969
13.704,-0.09639403289017805
13.708,-0.08170017727745965
13.712,-0.07227081059257369
13.716,-0.043006528671072866
13.72,-0.07615647668968151
13.724,-0.06214383044090572
13.728,-0.03341699275654372
13.732,-0.007881066461813113
13.736,-0.017577646366072387
13.74,-0.009973787523555266
13.744,-0.0030254698095837297
13.748,-0.014613274901189355
13.752,0.009213243303391756
13.756,-0.0076087882113848905
13.76,0.02457768364610134
13.764,0.006068891388599011
13.768,0.05185213214223342
13.772,0.04061021477376284
13.776,0.06100265948534246
13.78,0.042288635880894467
13.784,0.01472346497808896
13.788,0.004550340436935364
13.792,0.053072255969606005
13.796,0.013688839542856964
13.8,0.013141171530522088
13.804,0.02156866334610998
13.808,0.03613159904061526
13.812,-0.0131241079486059
13.816,0.015965047041975072
13.82,0.025789310904892938
13.824,0.0012225623992750461
13.828,-0.02727858026872193
13.832,-0.001281910809573058
13.836,-0.05216460534396003
13.84,-0.005680155181361579
13.844,-0.15072395697425262
13.848,-0.20891449476452326
13.852,-0.21002575007778604
13.856,-0.1872111622682631
13.86,0.3261873065177463
13.864,0.5844200650301465
13.868,0.8457913976982413
13.872,0.701241409352075
13.876,0.3943529205663031
13.88,0.1267049799656212
13.884,0.029299726184813465
13.888,-0.020751688256798347
13.892,-0.08514787462112226
13.896,-0.173188435874335
13.9,-0.2945314799116058
13.904,-0.28530547993859534
13.908,-0.23624883529123122
13.912,-0.1208031004215173
13.916,-0.018175348036448307
13.92,-0.03192369677014795
13.924,-0.027249115077167034
13.928,-0.028410014933335396
13.932,-0.04533797917019109
13.936,-0.001847317632962523
13.94,0.02040089150130758
13.944,0.0347456149657198
13.948,0.01846342029453198
13.952,0.021495476329961738
13.956,0.05281321989448459
13.96,0.049569871720468124
13.964,0.06810059417461006
13.968,0.038254060340125934
13.972,0.06567936710909603
13.976,0.09239749786919473
13.98,0.126783933559282
13.984,0.10040324650365087
13.988,0.16864103877627473
13.992,0.15966505370920278
13.996,0.15801696827294853
14.0,0.17925876659025328
14.004,0.16593847258360575
14.008,0.19939047893750095
14.012,0.2158714413645045
14.016,0.21928094021433794
14.02,0.22930978185128864
14.024,0.21306296209592124
14.028,0.2156742836710398
14.032,0.24596214209387135
14.036,0.26640483239751755
14.04,0.25126544119225747
14.044,0.2558199083460655
14.048,0.26065715983655446
14.052,0.25904631388756855
14.056,0.2689004276663485
14.06,0.26974001407346354
14.064,0.28128734051194
14.068,0.2601593582693455
14.072,0.2684587263076016
14.076,0.26292065965953954
14.08,0.25772586464832353
14.084,0.24917598474982536
14.088,0.23037959970047142
14.092,0.24194686097251866
14.096,0.21369428055446843
14.1,0.22217675106605078
14.104,0.22486069332107286
14.108,0.20813911361643708
14.112,0.18927992105248564
14.116,0.19766665147531007
14.12,0.16305035369597287
14.124,0.19001443138319538
14.128,0.1839256087371272
14.132,0.16766734003768943
14.136,0.16403912369208987
14.14,0.1109644557314594
14.144,0.15434950169284023
14.148,0.11196286688330488
14.152,0.10570803995914733
14.156,0.05376420892228103
14.16,0.06256899400546259
14.164,0.10382517861417728
14.168,0.07379800871785354
14.172,0.073568349747623
14.176,0.0589943101053954
14.18,0.0600491738263968
14.184,0.05272753724053607
14.188,0.08431206837326108
14.192,0.036556503310597184
14.196,0.03698087358632563
14.2,0.060870037986116884
14.204,0.06723163651661623
14.208,0.023768071190723657
14.212,0.0730413408539874
14.216,0.0661884736538931
14.22,0.07161322967670566
14.224,0.0579171917418549
14.228,0.05058953476799995
14.232,0.04620317536963403
14.236,0.04258451292393362
14.24,0.06554207559646354
14.244,0.07211182254669381
14.248,0.05606612396854076
14.252,0.061640062639569816
14.256,0.07717890028048302
14.26,0.07239752369897927
14.264,0.0758462692757039
14.268,0.07308617522915442
14.272,0.04804119923623496
14.276,0.08563249065287336
14.28,0.06190862275518601
14.284,0.10130117888599517
14.288,0.05514348324621042
14.292,0.05377983919804375
14.296,0.02448034448073414
14.3,0.019340816051142577
14.304,0.06964091033608374
14.308,0.0748811906887364
14.312,0.032697963178884126
14.316,0.05517127660029062
14.32,0.10183403539289611
14.324,0.07484531473405229
14.328,0.11369260623080069
14.332,0.09982248917049652
14.336,0.06946269321658761
14.34,0.07054986667681169
14.344,0.06820263113349381
14.348,0.09109709973643303
14.352,0.1025387479847738
14.356,0.09383266228273672
14.36,0.07288318603217502
14.364,0.07429683070558338
14.368,0.079273932572335
14.372,0.057083327115930595
14.376,0.03919012942617572
14.38,0.1094602559474703
14.384,0.07371693775388052
14.388,0.09807050328993792
14.392,0.07093339087030542
14.396,0.0690963264498147
14.4,0.08360766623049604
14.404,0.09254489656528873
14.408,0.08522715010164154
14.412,0.07199238671219557
14.416,0.05675677199986079
14.42,0.07211287684203695
14.424,0.07297537197434976
14.428,0.10349478231034369
14.432,0.0750905047206756
14.436,0.07060150406223567
14.44,0.07891698458951488
14.444,0.10596497665446901
14.448,0.09094713442975715
14.452,0.09759932654751703
14.456,0.058342312452548305
14.46,0.08444870057895579
14.464,0.09515684824512524
14.468,0.10527200799985573
14.472,0.058506495468514955
14.476,0.06570640377409681
14.48,0.06769949948670209
14.484,0.06342898461950654
14.488,0.10553318130761574
14.492,0.08765359804784656
14.496,0.10735346082931804
14.5,0.07256638095104316
14.504,0.1076983418616814
14.508,0.062013329623278685
14.512,0.11027479047431436
14.516,0.11822254047089528
14.52,0.12243971840817272
14.524,0.09184450598563554
14.528,0.06760367823226798
14.532,0.08292920346797168
14.536,0.10477527784356494
14.54,0.061183068568617695
14.544,0.06063169524769957
14.548,0.062035757412057184
14.552,0.07139547192924921
14.556,0.1027570950192138
14.56,0.09932378665779298
14.564,0.07201220315277201
14.568,0.05509941751543817
14.572,0.1048449690349627
14.576,0.13110658032051495
14.58,0.1413905799304832
14.584,0.12775265224271307
14.588,0.10459333133610954
14.592,0.10873781797084367
14.596,0.12080758504793333
14.6,0.1470259303858596
14.604,0.12410314761691682
14.608,0.12076869579619244
14.612,0.1585020283444518
14.616,0.18087699804592933
14.62,0.1787108808154875
14.624,0.1508990706328426
14.628,0.17944892577910948
14.632,0.1623963329669405
14.636,0.14793402700384095
14.64,0.12470568882427159
14.644,0.137519263625848
14.648,0.16081533063094405
14.652,0.14355063865966047
14.656,0.14864687688663622
14.66,0.16355085456258442
14.664,0.1380046547288318
14.668,0.1638479712096484
14.672,0.13693171493059506
14.676,0.10779190648555541
14.68,0.10266677486516262
14.684,0.10763979960065832
14.688,0.07311999024677007
14.692,0.07057542562466838
14.696,0.06946082533546961
14.7,0.02248184588481027
14.704,-0.07906003689943333
14.708,-0.1191140532313489
14.712,-0.0587442009958701
14.716,-0.027529537120014505
14.72,0.605964996967085
14.724,0.9117273465640253
14.728,0.8505451570300664
14.732,0.5841792051540611
14.736,0.26727680118677843
14.74,0.10803284115190107
14.744,0.05087479483507478
14.748,-0.0007006406535387487
14.752,-0.06384119909156567
14.756,-0.13941018191638962
14.76,-0.1929782866517544
14.764,-0.1533919987370464
14.768,-0.06757868089579283
14.772,-0.007704217596919658
14.776,0.03246288476391072
14.78,0.059297776313186314
14.784,0.028043185826425968
14.788,0.07240612453786986
14.792,0.08363173996997521
14.796,0.0876546634185263
14.8,0.10101849760117296
14.804,0.07920684091724801
14.808,0.07976717079295585
14.812,0.10479908960253369
14.816,0.05729634461837327
14.82,0.10020970966061421
14.824,0.13324280460745186
14.828,0.1337160610816458
14.832,0.14079480167188885
14.836,0.13671767205597907
14.84,0.13569171130612992
14.844,0.1668849926059887
14.848,0.16873934023527473
14.852,0.21302453305757793
14.856,0.20816923918327684
14.86,0.19961154925052893
14.864,0.205632923135382
14.868,0.2526299763186861
14.872,0.21282047577547228
14.876,0.24334872813815756
14.88,0.22598854478337324
14.884,0.21864486023120658
14.888,0.2561584655143829
14.892,0.27164421929429244
14.896,0.27812606176102944
14.9,0.26952398210650286
14.904,0.2707490606930845
14.908,0.28372400016311944
14.912,0.2839503903643706
14.916,0.2989712762458048
14.92,0.28168904719032567
14.924,0.3069622346820458
14.928,0.2632320082184201
14.932,0.28183736376831947
14.936,0.2732786142720232
14.94,0.2586110377355058
14.944,0.22761881176964233
14.948,0.24282639561953123
14.952,0.22902716368946943
14.956,0.2175577776147366
14.96,0.21519452569173664
14.964,0.2341136348698885
14.968,0.21647911558488783
14.972,0.1575637641670409
14.976,0.14421076236609226
14.98,0.14329920617782538
14.984,0.1279007083416083
14.988,0.14872362679756987
14.992,0.09361112787244677
14.996,0.10428510059356247
15.0,0.06711084135822512
15.004,0.06425091767179486
15.008,0.05734847939070517
15.012,0.05868092220714599
15.016,-0.00110121704724237
15.02,0.026925660480993086
15.024,0.01343255363140278
15.028,0.05410862346013492
15.032,0.0033723970493013664
15.036,0.003958041904812473
15.04,-0.013813436450389327
15.044,-0.02658176265402861
15.048,-1.9168135040306713e-05
15.052,-0.004256406510230497
15.056,0.002754955041999363
15.06,-0.034508935081841816
15.064,-0.013450611102174027
15.068,-0.05126090315667065
15.072,-0.006233889662152086
15.076,-0.035572688480910664
15.08,-0.04469435639281967
15.084,-0.0014826103724496994
15.088,-0.02280292569376821
15.092,-0.02586005131472468
15.096,-0.011046905087519918
15.1,-0.05176927761943859
15.104,-0.009945652419633546
15.108,-0.0074877711500007495
15.112,-0.040797799192657844
15.116,-0.040577135439776604
15.12,-0.07137517243601266
15.124,0.0045500331569763115
15.128,-0.029586640120018354
15.132,-0.05709561049782476
15.136,-0.06608444304063786
15.14,-0.0091779194017308
15.144,-0.02345858570161871
15.148,-0.05801195989032651
15.152,-0.05173116651378505
15.156,-0.03630729171159363
15.16,-0.04290962245306544
15.164,-0.036082874501831175
15.168,-0.026633720112983036
15.172,-0.023644676010776286
15.176,-0.05863449647942763
15.18,-0.05580163027428021
15.184,-0.057020030851056794
15.188,-0.031049358891488806
15.192,-0.04674866525376605
15.196,-0.020116418872098005
15.2,-0.01310252108678023
15.204,-0.05525690963549852
15.208,-0.06935668733932605
15.212,-0.0467314226329667
15.216,-0.04236511045894934
15.22,-0.018690941869799367
15.224,-0.08432839391549803
15.228,-0.06724373041184781
15.232,-0.04867874111207957
15.236,-0.05742578260330046
15.24,-0.05961163520650395
15.244,-0.09201818181817915
15.248,-0.03853705631840889
15.252,-0.04064557224788043
15.256,-0.08058344654380897
15.26,-0.05193172844424794
15.264,-0.0605810626272999
15.268,-0.04470364239817899
15.272,-0.05952011078338562
15.276,-0.06991940159322382
15.28,-0.06796478760189102
15.284,-0.05592680063673177
15.288,-0.022173909386118892
15.292,-0.0795488717474075
15.296,-0.00262004101400109
15.3,-0.0706350009117824
15.304,-0.08731595329135015
15.308,-0.04811242921879557
15.312,-0.07870588072905785
15.316,-0.060123331039628726
15.32,-0.06607377342627346
15.324,-0.05346359432427942
15.328,-0.059675670167565
15.332,-0.06383157247347135
15.336,-0.0997519750335222
15.34,-0.0732600301979895
15.344,-0.07103775206284824
15.348,-0.07501923241690531
15.352,-0.07737836765543027
15.356,-0.0940244763290923
15.36,-0.06041958284732581
15.364,-0.1140293413834431
15.368,-0.07491356610362235
15.372,-0.07924767319412868
15.376,-0.08199235585637853
15.38,-0.09110022435785156
15.384,-0.10361312458817079
15.388,-0.09187277578792614
15.392,-0.10970479941820407
15.396,-0.07085514890958482
15.4,-0.07535915937315046
15.404,-0.07945315063464269
15.408,-0.12999482812464955
15.412,-0.0750194654625047
15.416,-0.08519547852796541
15.42,-0.06534453844802228
15.424,-0.0926330093736112
15.428,-0.07957363678836732
15.432,-0.07300877214093998
15.436,-0.06966725222302066
15.44,-0.06983858999127641
15.444,-0.026488971771446893
15.448,-0.06726809011094095
15.452,-0.042403737107183405
15.456,-0.06292365512163613
15.46,-0.02853521055334715
15.464,-0.016914157005994305
15.468,-0.026626547594595578
15.472,0.0020390613408891546
15.476,-0.00151671152126002
15.48,-0.017285305278418185
15.484,-0.023355958545491665
15.488,-0.011202980100463104
15.492,0.005674439127650226
15.496,-0.020944071025571054
15.5,-0.010022916168295183
15.504,-0.004079095505973357
15.508,-0.013150205461747597
15.512,-0.04631260620376229
15.516,-0.0032008587008307433
15.52,0.0002798079371831042
15.524,-0.014013616921432125
15.528,-0.05502467003899159
15.532,-0.03609109867435264
15.536,-0.04879283329048664
15.54,-0.08335855165457891
15.544,-0.07379368296177426
15.548,-0.08404047651257082
15.552,-0.06946668378759732
15.556,-0.09364083929904317
15.56,-0.2023580817275985
15.564,-0.2935526047993642
15.568,-0.24179938427282294
15.572,-0.1985526814529063
15.576,0.3595133789307363
15.58,0.6983677636483951
15.584,0.7832928374191885
15.588,0.5138504820022365
15.592,0.20139462481499384
15.596,0.007668880874319648
15.6,-0.08690581479020065
15.604,-0.1196000053767377
15.608,-0.17937878934863255
15.612,-0.24881829197996713
15.616,-0.3396290259881692
15.62,-0.3014210390100579
15.624,-0.22375402945122455
15.628,-0.13625371180569823
15.632,-0.07477220392560584
15.636,-0.11862008236898819
15.64,-0.07991169651063934
15.644,-0.08996336711973711
15.648,-0.07597174804982966
15.652,-0.07434758682191733
15.656,-0.05516341127232096
15.66,-0.07639382959501849
15.664,-0.005255355898560311
15.668,-0.033905772773714794
15.672,0.004485919768996147
15.676,-0.012219984022309787
15.68,-0.0047172629848652205
15.684,0.016128752784184425
15.688,0.022338400506060715
15.692,0.025992075133587457
15.696,0.04864061029123462
15.7,0.04967379009685374
15.704,0.05646406786850176
15.708,0.08578714429342875
15.712,0.0812789020214259
15.716,0.10193634553952445
15.72,0.12169870202380893
15.724,0.12377220030111843
15.728,0.13031660486807117
15.732,0.17104924673967067
15.736,0.1775421180591777
15.74,0.13773857845231904
15.744,0.1684314791909976
15.748,0.18251821942834207
15.752,0.17795421726846555
15.756,0.1901046016717759
15.76,0.1339400509394837
15.764,0.19702737594450664
15.768,0.1859017259854307
15.772,0.20824636298382304
15.776,0.1820792127647771
15.78,0.18160585148400948
15.784,0.201587561596439
15.788,0.223430255910145
15.792,0.18304276582700155
15.796,0.1884047044733273
15.8,0.19093172899994687
15.804,0.1956791203357457
15.808,0.1415609471755972
15.812,0.1618367978843059
15.816,0.13947819803046185
15.82,0.14743361786241552
15.824,0.12267738577483311
15.828,0.13026400309743033
15.832,0.09492536025778545
15.836,0.09512524324191142
15.84,0.0795601631317397
15.844,0.07819865926555328
15.848,0.07626960145723334
15.852,0.05444795123177758
15.856,0.03324147404894198
15.86,0.03912344692912335
15.864,0.033063601881793823
15.868,0.05839943128689935
15.872,-0.0016611885295605823
15.876,-0.0010650270796253114
15.88,-0.017423579313144484
15.884,-0.007179698728353095
15.888,-0.018108097545124352
15.892,-0.02408251943070806
15.896,-0.020255653046781383
15.9,-0.02104178876045368
15.904,-0.03373114644946849
15.908,-0.0255581627528656
15.912,-0.04662121457595591
15.916,-0.050603471917051855
15.92,-0.01385759879320981
15.924,0.004672663372913636
15.928,-0.047447929895051
15.932,-0.013602898538535036
15.936,-0.0017275310696836315
15.94,0.018456414029634462
15.944,-0.021059385256443536
15.948,-0.028972213094177607
15.952,-0.00962005246332864
15.956,-0.02411365180438449
15.96,-0.0032800508960210977
15.964,-0.007905597433522557
15.968,-0.005207374855618942
15.972,-0.054149950079158335
15.976,0.0063138885936343085
15.98,0.018966629323156358
15.984,-0.026213936699588464
15.988,-0.008262347959668223
15.992,-0.015161887489824426
15.996,-0.02979826655719809
16.0,-0.016241284300225794
16.004,-0.011422774468321845
16.008,0.004487631653611829
16.012,0.010550240485949242
16.016,-0.026248696581401505
16.02,-0.0022685252431953787
16.024,0.030612707348323318
16.028,0.02778645722617598
16.032,0.008798415861453156
16.036,-0.015795069728995047
16.04,-0.02157418942685582
16.044,0.004096603044386813
16.048,0.04266366781864706
16.052,0.039802364522674785
16.056,-0.008193000312732691
16.06,0.006186700227168193
16.064,0.017948803434353875
16.068,0.021380409689335956
16.072,0.02878154335942027
16.076,0.04725559351341344
16.08,0.030909439923981118
16.084,0.034342339534538545
16.088,0.0005051382167015448
16.092,0.020947279361645522
16.096,0.016067059374127377
16.1,0.045399180840007526
16.104,0.01642821805009428
16.108,0.0206894383979887
16.112,0.026796489609427758
16.116,0.01409756528029163
16.12,0.006823355040466775
16.124,0.020327673860596657
16.128,0.01423085954049262
16.132,0.03780562310702517
16.136,0.02870212796947814
16.14,0.03300523790706921
16.144,0.033589997444890905
16.148,0.051244082673496845
16.152,0.0670830885476054
16.156,0.08323720285821075
16.16,0.012461816407723088
16.164,0.058815352054002665
16.168,0.07965896529714064
16.172,0.049954476580383884
16.176,0.0067227009680592776
16.18,0.056004014538977596
16.184,0.06491047882506147
16.188,0.044910084311328646
16.192,0.05600449146552412
16.196,0.06712853034945511
16.2,0.05114465492775924
16.204,0.08142061509270707
16.208,0.04636838073249814
16.212,0.04948455467739849
16.216,0.059115826615573464
16.22,0.04388020087143684
16.224,0.07852304682715826
16.228,0.04787170599220646
16.232,0.04731541700163655
16.236,0.040769161031785364
16.24,0.08151172244666752
16.244,0.07869098390713186
16.248,0.07418848895916903
16.252,0.07890522808358555
16.256,0.0685367964183381
16.26,0.08511391650443913
16.264,0.050948357853111186
16.268,0.06857143446705592
16.272,0.09411806171242966
16.276,0.044096902652707666
16.28,0.0454355776822487
16.284,0.07663635653886246
16.288,0.07761293040602987
16.292,0.08091280882495723
16.296,0.08684619629761135
16.3,0.12762262204340288
16.304,0.1356665411103706
16.308,0.106469443213718
16.312,0.14739510019759897
16.316,0.11509583966307804
16.32,0.13755519898553686
16.324,0.1496268468981704
16.328,0.14747454860284268
16.332,0.15180529102108434
16.336,0.14204528103624517
16.34,0.15510378123551619
16.344,0.14852569632581678
16.348,0.16028666706641148
16.352,0.12875644990728952
16.356,0.1775339257888711
16.36,0.15228756047983485
16.364,0.16861081140531395
16.368,0.13715269887683357
16.372,0.16859361516619092
16.376,0.1522239775048776
16.38,0.1368048487012018
16.384,0.1257985355226252
16.388,0.16606830344839268
16.392,0.15329469894012396
16.396,0.10624136079105327
16.4,0.12045980436560105
16.404,0.08424795277135658
16.408,0.11726773505953986
16.412,0.10426070973566288
16.416,-0.011824155929990424
16.42,-0.07899606919652696
16.424,-0.09621422685177529
16.428,-0.0394128255242226
16.432,0.485781683971559
16.436,0.8036150986512042
16.44,0.9570911419053743
16.444,0.7723903016808882
16.448,0.48931124676095444
16.452,0.22921789405192597
16.456,0.11950513430230028
16.46,0.06443859875361024
16.464,0.06331926205755677
16.468,-0.06706727273054533
16.472,-0.16183437748228657
16.476,-0.1549140110885548
16.48,-0.08007830415567455
16.484,0.013271191051160024
16.488,0.06289622168706105
16.492,0.08891880776602411
16.496,0.07468064823887174
16.5,0.08267082254792454
16.504,0.0944533114673123
16.508,0.10864564352417305
16.512,0.10920803622600718
16.516,0.14620754562463864
16.52,0.13907274982872123
16.524,0.12690049558286562
16.528,0.11761799870430967
16.532,0.13764865621214004
16.536,0.15183486456670858
16.54,0.1875735653909492
16.544,0.1509715537499127
16.548,0.16583542692463482
16.552,0.21188759339106433
16.556,0.17016721217051353
16.56,0.20313860391472846
16.564,0.23288218830139887
16.568,0.22105290572142128
16.572,0.24982924999879905
16.576,0.22792005685104913
16.58,0.3110881299599919
16.584,0.2840000472331613
16.588,0.29118620689009816
16.592,0.3083947589619261
16.596,0.2908533879357091
16.6,0.3108499231218084
16.604,0.3217150986589003
16.608,0.35145069692025693
16.612,0.3498450508921308
16.616,0.3256264613262796
16.62,0.32502683740317234
16.624,0.3512707864190129
16.628,0.31654250888819657
16.632,0.35714663303846733
16.636,0.36061678009140674
16.64,0.338259217414334
16.644,0.33589758899596717
16.648,0.34549441921181917
16.652,0.30900614668253135
16.656,0.32989763481382683
16.66,0.2933382957800861
16.664,0.29260384752248436
16.668,0.2691237346385418
16.672,0.3053680861920671
16.676,0.2542452276223149
16.68,0.27913637888487747
16.684,0.22519296382595988
16.688,0.20178349856082087
16.692,0.21675923847415046
16.696,0.1864226379661532
16.7,0.20096952580463787
16.704,0.17196071518409525
16.708,0.14651114074727753
16.712,0.19765963441379203
16.716,0.15022520522519087
16.72,0.14854563846543556
16.724,0.13047280427013755
16.728,0.1455379791170164
16.732,0.11785752200794472
16.736,0.08776528136098383
16.74,0.08332605922820244
16.744,0.05711795802868934
16.748,0.07089850350385732
16.752,0.095690415183488
16.756,0.1040302369901939
16.76,0.070626786007976
16.764,0.03912918354377335
16.768,0.061564830252110375
16.772,0.08845460047222224
16.776,0.03869188134016578
16.78,0.031921362518494235
16.784,0.02777435489661838
16.788,0.029264916742312158
16.792,0.05257086413884183
16.796,0.026428500461511878
16.8,0.02480376015838472
16.804,0.04648794067994572
16.808,0.05879570120178035
16.812,0.07178419672214705
16.816,0.03509265448680524
16.82,0.031637457547221116
16.824,0.05869037687617832
16.828,0.06227153007924809
16.832,0.05241387414702344
16.836,0.048669185792739274
16.84,0.04478078149745014
16.844,0.029875455581755007
16.848,0.009942192793283913
16.852,0.03812739688178351
16.856,0.06318958941548089
16.86,0.04107997821224555
16.864,0.045099225482855845
16.868,0.022351270365072624
16.872,-0.0011400942036432274
16.876,0.033535496081008226
16.88,0.008410568981282165
16.884,0.03261642438850631
16.888,-0.012143076035061725
16.892,0.020432189302453517
16.896,0.05515030459359391
16.9,0.047824758622602166
16.904,0.041156427932202956
16.908,0.025027548969128195
16.912,0.01008511290639929
16.916,0.017095663395939483
16.92,0.02048379630370783
16.924,0.05498831566038674
16.928,-0.012548154702859653
16.932,0.011653976855708332
16.936,0.017240338419463593
16.94,0.028930324387422345
16.944,0.026041482896337478
16.948,-0.007461682911605762
16.952,-0.012574025408401615
16.956,0.004587105859165055
16.96,-0.022411973225514182
16.964,0.02042618648478112
16.968,-0.02030853264784422
16.972,-0.015420913355440956
16.976,0.008261517456298884
16.98,0.02766592652140732
16.984,-0.015248926216171847
16.988,-0.010475549888170017
16.992,-0.005334713867855463
16.996,-0.006523001430584046
17.0,0.019024560049769403
17.004,0.020022638611518824
17.008,-0.026072826710344214
17.012,-0.006558225456447318
17.016,0.0010730309750041258
17.02,0.011884143118098647
17.024,0.011245124211874298
17.028,0.004472843696407968
17.032,0.0058837810387493165
17.036,0.004041670747484855
17.04,-0.008740499218718606
17.044,-0.020863227851246623
17.048,-0.04177911417368465
17.052,-0.009964186139703386
17.056,-0.018609992461659827
17.06,-0.04770227539619597
17.064,-0.0160223724300924
17.068,-0.00863659234716719
17.072,-0.03578739472189672
17.076,-0.03049047793013448
17.08,-0.023443404921811677
17.084,-0.025572521754999505
17.088,-0.01040821371392363
17.092,-0.0243595528592003
17.096,-0.044309999738442504
17.1,-0.010753712403164332
17.104,-0.058726352968005366
17.108,-0.010340187206918035
17.112,-0.024485477476028465
17.116,-0.019789503805687052
17.12,-0.07682163935022798
17.124,-0.05850576738898138
17.128,-0.02039652914410306
17.132,-0.05664213582086565
17.136,-0.04488680054325965
17.14,-0.022972333854432144
17.144,-0.0410940280607488
17.148,-0.029211079164785554
17.152,-0.012762404769713673
17.156,-0.02340088265383679
17.16,-0.0038912950696747854
17.164,-0.036851046612739004
17.168,0.032089193936253535
17.172,-0.007166735318177619
17.176,0.017877891545403604
17.18,-0.0004480965058580479
17.184,-0.0056948963204196444
17.188,0.06534668705455916
17.192,0.04502399629871938
17.196,0.0259828806399141
17.2,0.033170850651658014
17.204,0.019573200539607698
17.208,0.028072027380474263
17.212,0.05424808497922141
17.216,0.04886228500778748
17.22,-0.00123852172825666
17.224,-0.01498647270229016
17.228,0.030196114592952728
17.232,0.007943469274607972
17.236,-0.005162432438939128
17.24,-0.009207521074055936
17.244,-0.0037258865336784164
17.248,0.012461733988054766
17.252,-0.01969071893489804
17.256,-0.02171570426822824
17.26,-0.035331334676222854
17.264,-0.037749990236291456
17.268,-0.08903838250674208
17.272,-0.1465817579769284
17.276,-0.21598263089578038
17.28,-0.24138790519885478
17.284,-0.19274782504201776
17.288,-0.1315999449299758
17.292,0.5320913851774172
17.296,0.8207430256544129
17.3,0.7174239870371667
17.304,0.3758972688216655
17.308,0.14548496006556957
17.312,-0.04444672074717403
17.316,-0.08151394702986592
17.32,-0.12825522541128476
17.324,-0.2176631650994761
17.328,-0.3122489037046814
17.332,-0.3638732503371895
17.336,-0.26794129270585393
17.34,-0.1883891572748148
17.344,-0.10788316015864464
17.348,-0.06529833521100811
17.352,-0.09133189846689496
17.356,-0.09192909291465574
17.36,-0.047870732822561976
17.364,-0.05982810432735166
17.368,-0.07827316656523797
17.372,-0.04834304857653738
17.376,-0.024427874322878598
17.38,-0.05503573212649671
17.384,-0.04314728705523339
17.388,-0.0012103498369402492
17.392,-0.03594188191603227
17.396,-0.032840922547533236
17.4,0.007584778405144018
17.404,0.04144691506274617
17.408,0.005257593113477548
17.412,0.014540123551190361
17.416,0.03236383063802846
17.42,0.058404743471395244
17.424,0.08744019165046248
17.428,0.0814521917350427
17.432,0.0833355517167811
17.436,0.09489120067288008
17.44,0.1544218319625243
17.444,0.09930578759218198
17.448,0.15767793111624737
17.452,0.13345708679824364
17.456,0.13129145886952434
17.46,0.1736691672350289
17.464,0.18089321098949349
17.468,0.17602699610139153
17.472,0.19476511103226155
17.476,0.1799989972282905
17.48,0.15066278032855873
17.484,0.2026763459954351
17.488,0.18030473881172387
17.492,0.16666105601543227
17.496,0.1552960351727031
17.5,0.17031699545275217
17.504,0.15958998066009433
17.508,0.15583082776928392
17.512,0.16487109865290694
17.516,0.12659928879391216
17.52,0.16611759910310298
17.524,0.1184042414518104
17.528,0.1435899942250163
17.532,0.0938080420884119
17.536,0.09626538592986073
17.54,0.1287013557147332
17.544,0.10953617545692491
17.548,0.07182649229606715
17.552,0.05705477052080321
17.556,0.02718587798290895
17.56,0.06096974691967709
17.564,0.00517950354753263
17.568,0.01590122716928042
17.572,0.020240681444192516
17.576,-0.000590909834064822
17.58,-0.037931223651176724
17.584,-0.01748407307658552
17.588,-0.0420208229685395
17.592,-0.02734450891884086
17.596,-0.025231598170540725
17.6,-0.02132636072333792
17.604,-0.06381751845825057
17.608,-0.07802596374876089
17.612,-0.07743106463938837
17.616,-0.1090446037347799
17.62,-0.05790950908783999
17.624,-0.08474436340803769
17.628,-0.08919634710325447
17.632,-0.06438276999520476
17.636,-0.10252456759788155
17.64,-0.07845550393004264
17.644,-0.08190498293943403
17.648,-0.0823584809836689
17.652,-0.07918310275720739
17.656,-0.0675907682884455
17.66,-0.06612932059328565
17.664,-0.10493043820788162
17.668,-0.07319924914052983
17.672,-0.08118836552399328
17.676,-0.09874070627406818
17.68,-0.07423992149198734
17.684,-0.08670181376193833
17.688,-0.05839661841311298
17.692,-0.05422013159470502
17.696,-0.0553290172756905
17.7,-0.08155033213576512
17.704,-0.06487024868896749
17.708,-0.07650892120672113
17.712,-0.07409704260863488
17.716,-0.08426773536201039
17.72,-0.038649092912058765
17.724,-0.0769522270165949
17.728,-0.08635360682522539
17.732,-0.03201028681920074
17.736,-0.057709521500040516
17.74,-0.06016700057827156
17.744,-0.033961530577656815
17.748,-0.05594173214722771
17.752,-0.08597845549278518
17.756,-0.0303992900374734
17.76,-0.07993661873932989
17.764,-0.04994805839287442
17.768,-0.06912869075284755
17.772,-0.07681988793465763
17.776,-0.04522190365000354
17.78,-0.06636434144615955
17.784,-0.06832060419221214
17.788,-0.0067625858229730185
17.792,-0.04148941424976662
17.796,-0.026286723169417377
17.8,-0.065446128139188
17.804,-0.07028437894720072
17.808,-0.062496686454438344
17.812,-0.07441268502961267
17.816,-0.058723902817828195
17.82,-0.04848746943478768
17.824,-0.06704781852817518
17.828,-0.0709739435972424
17.832,-0.02003093052791382
17.836,-0.05630566190754639
17.84,-0.017541228495967107
17.844,-0.04640594844166294
17.848,-0.022075493604970395
17.852,-0.020886437166227727
17.856,-0.03860875943682514
17.86,-0.03231944855905328
17.864,-0.05771827297037736
17.868,-0.023430793406917356
17.872,-0.06599684114218324
17.876,-0.034578390314257065
17.88,-0.030777739455530296
17.884,-0.023854635739778075
17.888,-0.08430539301475726
17.892,-0.03251196988880697
17.896,-0.016028023427326683
17.9,-0.04050022099899242
17.904,-0.049084648940459295
17.908,-0.04184064916001223
17.912,-0.01159684299492612
17.916,-0.028963589408808686
17.92,-0.02226603066392782
17.924,-0.032465844494651855
17.928,-0.025815085186981335
17.932,-0.023985455483911365
17.936,-0.01817261036055861
17.94,-0.04558666337973736
17.944,-0.01890325713339301
17.948,-0.009337812668109704
17.952,-0.029918587527252495
17.956,0.000313812654926193
17.96,0.003024740462445016
17.964,-0.008555306551545632
17.968,-0.004158436541427389
17.972,0.008577784307227039
17.976,-0.009917380994807488
17.98,-0.022739478081664793
17.984,-0.01893503106729595
17.988,-0.028585188494434734
17.992,0.008739025244052009
17.996,0.015076511145546713
18.0,-0.00450775171771005
18.004,0.026378912734478756
18.008,0.017512076481269432
18.012,0.026397076136060363
18.016,0.0300362653675072
18.02,0.03183815793452482
18.024,0.015588848650462592
18.028,0.07716470493184005
