time,amplitude
0.0,0.0038629548963940597
0.002,0.006678707166444578
0.004,0.014422396421256558
0.006,0.001747444901689302
0.008,0.03926841935395218
0.01,-0.0002376582171376973
0.012,0.034620604242638665
0.014,0.03852323276832414
0.016,0.05848485600478643
0.018,0.030741362774268442
0.02,0.045321402397664495
0.022,0.05617631421076586
0.024,0.049005740961884696
0.026,0.07811801798359592
0.028,0.08246427960384167
0.03,0.06795822303955219
0.032,0.071331426371318
0.034,0.10716762708197433
0.036,0.09609352146803854
0.038,0.1121306141582491
0.04,0.10754374048587384
0.042,0.11022186259370526
0.044,0.08945483357962083
0.046,0.10286244723729651
0.048,0.12005058600104859
0.05,0.10409420747221301
0.052,0.12147997425934481
0.054,0.11541775695651514
0.056,0.096969271543291
0.058,0.08726512396238521
0.06,0.11681023491756365
0.062,0.0966289867507078
0.064,0.09861759537318479
0.066,0.10932745663104719
0.068,0.08114448849329924
0.07,0.11201092145368927
0.072,0.09173413314809943
0.074,0.07463545781350789
0.076,0.0822028658188586
0.078,0.07992134312128354
0.08,0.0804325715309445
0.082,0.07772843940986864
0.084,0.08012912501800522
0.086,0.07804583307643148
0.088,0.04859151148196937
0.09,0.04597419737020575
0.092,0.05014950515457857
0.094,0.05978372147967681
0.096,0.04212529522918918
0.098,0.027619331933830822
0.1,-0.038347579445330376
0.102,-0.1129704268475567
0.104,-0.15502968477813897
0.106,-0.16616399139781263
0.108,-0.15511216327403302
0.11,-0.120816977901515
0.112,-0.05885808239811588
0.114,0.4617291459990779
0.116,0.6705184005716941
0.118,0.8927970369916133
0.12,0.976982239166798
0.122,0.8836195928850804
0.124,0.690864168532219
0.126,0.4514016810518725
0.128,0.2569822625004837
0.13,0.13320884638939837
0.132,0.07576458533742877
0.134,0.011822806188919557
0.136,0.026842270032327736
0.138,-0.02848386551075045
0.14,-0.06363664918105805
0.142,-0.1348787659242671
0.144,-0.1750326938914634
0.146,-0.2608238203603864
0.148,-0.2363039605636781
0.15,-0.19438606467969657
0.152,-0.13153366133463265
0.154,-0.0562859741203621
0.156,0.018025807956493795
0.158,0.01322958432576685
0.16,0.04645785594194836
0.162,0.06446333879929274
0.164,0.03339211735066455
0.166,0.05295582595921155
0.168,0.03319180957527192
0.17,0.07472211146180631
0.172,0.04455506815039777
0.174,0.0735733445981096
0.176,0.05524508543508987
0.178,0.08190068539602728
0.18,0.06475706451507474
0.182,0.08214580049086499
0.184,0.08593026208588238
0.186,0.07513593863416101
0.188,0.11479361229688723
0.19,0.09803822144401929
0.192,0.1198401089551986
0.194,0.11896457705912467
0.196,0.11436689085628332
0.198,0.12931104511358
0.2,0.13920282309957524
0.202,0.17462344664529503
0.204,0.15543781665200543
0.206,0.17797083363907973
0.208,0.16228540862850707
0.21,0.1649911578623196
0.212,0.17428992227278114
0.214,0.18843757816897289
0.216,0.20357981226654642
0.218,0.2311516822703032
0.22,0.22676406088968917
0.222,0.24134951319410944
0.224,0.2103393551915213
0.226,0.2633661703438751
0.228,0.2420395006512167
0.23,0.2575542348119428
0.232,0.28557248662320955
0.234,0.29206372237894085
0.236,0.28285873872006645
0.238,0.2925060946152529
0.24,0.31668159155383846
0.242,0.3104917152891212
0.244,0.3082682270821122
0.246,0.29898580781411965
0.248,0.29643306675374465
0.25,0.35639613085266403
0.252,0.3204027201223104
0.254,0.3169487959047754
0.256,0.3162841035037705
0.258,0.3532212379831845
0.26,0.3409474729846642
0.262,0.35052988040884675
0.264,0.34427985778231085
0.266,0.35271790323527064
0.268,0.3556974118717451
0.27,0.3439036613371371
0.272,0.3466612596151889
0.274,0.3602695397183887
0.276,0.34481623312589793
0.278,0.36812688000022137
0.28,0.3558283790605779
0.282,0.35792936192806546
0.284,0.3408912712898033
0.286,0.32371879056146463
0.288,0.29916197398213235
0.29,0.3175971161609687
0.292,0.3032829936851412
0.294,0.2941170592785631
0.296,0.29977527942498494
0.298,0.32978963546035
0.3,0.2826888252320437
0.302,0.2596912855552106
0.304,0.28976428772228874
0.306,0.27555513873784115
0.308,0.2704676906509408
0.31,0.2623715017003037
0.312,0.235788157551337
0.314,0.2523029216806012
0.316,0.22217793648186274
0.318,0.23000557624681098
0.32,0.22722697550833093
0.322,0.21169704103639414
0.324,0.19239864470678564
0.326,0.17312639971277993
0.328,0.19868405265772277
0.33,0.18115716402443408
0.332,0.20006461310858598
0.334,0.18036913580721936
0.336,0.18008446521827393
0.338,0.15908279978249698
0.34,0.13441751331254895
0.342,0.12679932141830463
0.344,0.1188934471541206
0.346,0.13751729458550305
0.348,0.1281117262708882
0.35,0.08479054080971112
0.352,0.13028003217382203
0.354,0.10028607144323542
0.356,0.11094419878411496
0.358,0.09639766432928873
0.36,0.06985228540787228
0.362,0.09252834644007013
0.364,0.10353027619198997
0.366,0.06873336092015281
0.368,0.06485066737096225
0.37,0.07997196709992753
0.372,0.0992781721740606
0.374,0.09375148078024947
0.376,0.08569863792727477
0.378,0.07275574660813655
0.38,0.09241057066536021
0.382,0.08493312924700956
0.384,0.07735844635667422
0.386,0.0828630004744995
0.388,0.08616309680951957
0.39,0.06580004219156226
0.392,0.11532590636358452
0.394,0.10495200687376492
0.396,0.07121311711987467
0.398,0.068005355002373
0.4,0.08537350582244757
0.402,0.10058468165769026
0.404,0.09532650893081383
0.406,0.08940051701833
0.408,0.08120148015417286
0.41,0.09975389834071413
0.412,0.08296432756559895
0.414,0.0776048570957505
0.416,0.09092410927769709
0.418,0.09529769291732645
0.42,0.09980646863456273
0.422,0.08228978448295164
0.424,0.06333406286021337
0.426,0.08565132014859175
0.428,0.07906993133794807
0.43,0.10280950790232365
0.432,0.06101187853779098
0.434,0.07875642049919182
0.436,0.09830512243342356
0.438,0.09971983288709309
0.44,0.08397777405179692
0.442,0.09428869327328365
0.444,0.11186246776149002
0.446,0.0596561184346709
0.448,0.09976913618635677
0.45,0.07189941585922707
0.452,0.10155122977637289
0.454,0.08786654546032857
0.456,0.1209443558488601
0.458,0.09334566300488577
0.46,0.08335825774530618
0.462,0.06662785514902157
0.464,0.09624149327929835
0.466,0.09357998927882745
0.468,0.0960228483108725
0.47,0.09525819103385448
0.472,0.11809755122289245
0.474,0.098288983285724
0.476,0.10085125450689868
0.478,0.08471825662204333
0.48,0.08023524840577069
0.482,0.1104240393599623
0.484,0.08917988524308891
0.486,0.0729308520080411
0.488,0.09966615697468977
0.49,0.08597918586563294
0.492,0.10978335038223813
0.494,0.10905088807084833
0.496,0.0927853372524547
0.498,0.07912086492732336
0.5,0.0867571415384513
0.502,0.0692211392656182
0.504,0.07666744908034667
0.506,0.08732135495389381
0.508,0.11073504869400473
0.51,0.07891665353605222
0.512,0.08987353962474792
0.514,0.10262649717840436
0.516,0.07615097399849026
0.518,0.09917359276155154
0.52,0.0804028988290767
0.522,0.12019808001555275
0.524,0.07661736401127758
0.526,0.10011205913838513
0.528,0.07316303495475343
0.53,0.10444630126815684
0.532,0.07860824818504834
0.534,0.10195597287421437
0.536,0.0890977911318289
0.538,0.09148083223890133
0.54,0.08066022192384198
0.542,0.0910162955799583
0.544,0.10067439931288502
0.546,0.09984870236969515
0.548,0.11060721657880378
0.55,0.08957959581195059
0.552,0.11257337401929807
0.554,0.10906556073453334
0.556,0.09548216430308783
0.558,0.0973886565958059
0.56,0.08831886358206345
0.562,0.07505831362209532
0.564,0.082176128523453
0.566,0.10711014974696198
0.568,0.0999742710453783
0.57,0.058964839545646595
0.572,0.10379379002268921
0.574,0.08952145566416576
0.576,0.09255161209765518
0.578,0.07945524194842732
0.58,0.09592048107339203
0.582,0.10983647779630376
0.584,0.11402714276196257
0.586,0.09983633391862128
0.588,0.09737884004015508
0.59,0.10098870378822218
0.592,0.09340690438668768
0.594,0.09046714422673938
0.596,0.07470687585134778
0.598,0.07904797738679484
0.6,0.10456506641719301
0.602,0.09386120407998422
0.604,0.10029544242860317
0.606,0.09092030459491184
0.608,0.08751940855020456
0.61,0.09936397289186642
0.612,0.07519558404610564
0.614,0.0692237553390248
0.616,0.07648356858719992
0.618,0.11242274248849773
0.62,0.08521293499478888
0.622,0.06773099601002333
0.624,0.10417880358221086
0.626,0.08992848679396782
0.628,0.10908635410588112
0.63,0.09770393985723726
0.632,0.09458725857560624
0.634,0.10147905148045443
0.636,0.08577553679806102
0.638,0.09297505218925206
0.64,0.09802993421324989
0.642,0.07034874154580353
0.644,0.09205025630200403
0.646,0.07735557537559387
0.648,0.09536887866502788
0.65,0.0926127760958591
0.652,0.08339553671381184
0.654,0.07545879876630496
0.656,0.08797197972932774
0.658,0.07790456024075809
0.66,0.07945292664965857
0.662,0.07702422462887856
0.664,0.04665201957334506
0.666,0.1019732850837234
0.668,0.07749164551689061
0.67,0.11274614018383797
0.672,0.09697784221945659
0.674,0.1053721857177352
0.676,0.10253307907053134
0.678,0.1284635291154658
0.68,0.09361516338168815
0.682,0.12255874314291594
0.684,0.12590491315170846
0.686,0.13561696877534288
0.688,0.15388519705844486
0.69,0.10929032451763597
0.692,0.1408507899989002
0.694,0.16776036429572497
0.696,0.14820195436089728
0.698,0.15287811777612698
0.7,0.17823823622001517
0.702,0.18194687073646115
0.704,0.15834915017241535
0.706,0.1785927504275563
0.708,0.13836456182052692
0.71,0.17535647692518325
0.712,0.19469237624852614
0.714,0.15446168560452947
0.716,0.16335269692555135
0.718,0.1573311645024538
0.72,0.19179908844764068
0.722,0.15688348285788556
0.724,0.1538265162838964
0.726,0.17842480990258214
0.728,0.1573393249817422
0.73,0.1647469453957024
0.732,0.15585296169426258
0.734,0.1634955959783945
0.736,0.13162907465180476
0.738,0.10917941431115273
0.74,0.15102374683880895
0.742,0.12636864102668488
0.744,0.12393914000252938
0.746,0.14143141779974794
0.748,0.1212951942089045
0.75,0.13164188711010652
0.752,0.11416862521279575
0.754,0.12036720591199757
0.756,0.10479674041602183
0.758,0.1135347051270073
0.76,0.09734979859026581
0.762,0.08379582285009811
0.764,0.08282556080891326
0.766,0.06842460914947363
0.768,-0.03679718644074541
0.77,-0.088060810754058
0.772,-0.11641596015442922
0.774,-0.11883135745144263
0.776,-0.10436959675809883
0.778,-0.035978801715808854
0.78,0.39168441326475667
0.782,0.6404324060670965
0.784,0.8223221007204375
0.786,0.9900066930116621
0.788,0.9670199515786414
0.79,0.7918592751479441
0.792,0.5477308651399335
0.794,0.3205353370560517
0.796,0.1723403349739902
0.798,0.08400066945117134
0.8,0.053307281231405296
0.802,0.03370318159444635
0.804,0.03827955483132112
0.806,-0.018070439535531925
0.808,-0.11263344080846904
0.81,-0.1695316472466124
0.812,-0.22649758348151075
0.814,-0.18714559438159756
0.816,-0.19135903250926006
0.818,-0.1370032568768652
0.82,-0.0521406823951495
0.822,-0.0038439471193234998
0.824,0.04546939954159452
0.826,0.034195048596848625
0.828,0.037863290532814
0.83,0.03417488683886915
0.832,0.051860780255914056
0.834,0.02801322353093534
0.836,0.040232155462403815
0.838,0.0721991275712753
0.84,0.049489187244902456
0.842,0.06377317081982661
0.844,0.06968199099535478
0.846,0.07337212638402513
0.848,0.07247568293920024
0.85,0.07628068288953024
0.852,0.05382737081974203
0.854,0.09869763478204495
0.856,0.09428286803326193
0.858,0.11338014010465701
0.86,0.1288006827710581
0.862,0.11727328794100336
0.864,0.08292469333907412
0.866,0.11831878827384931
0.868,0.1355669509340533
0.87,0.1540965035700056
0.872,0.14085592764767996
0.874,0.14518081677254563
0.876,0.1571914599349069
0.878,0.17315705469321516
0.88,0.1776353749205635
0.882,0.185921792758045
0.884,0.21692772201614202
0.886,0.1974723284618197
0.888,0.21175334801167833
0.89,0.2302662006323025
0.892,0.24291485750074424
0.894,0.24343489885693284
0.896,0.23063617318853954
0.898,0.2362972190405736
0.9,0.2521263686826705
0.902,0.27443177323061824
0.904,0.2470663320569779
0.906,0.2528541291201689
0.908,0.26723169897595955
0.91,0.2540983764718846
0.912,0.29529305603914097
0.914,0.293083443858495
0.916,0.28677364658513377
0.918,0.2882240731259523
0.92,0.2853986721931912
0.922,0.3055851479148645
0.924,0.31596978722407615
0.926,0.2870012098632406
0.928,0.3007044174917166
0.93,0.31654270346365937
0.932,0.30082016406066026
0.934,0.3042644670334039
0.936,0.3368846328412354
0.938,0.27933226163733127
0.94,0.3214405824350187
0.942,0.28660246994552724
0.944,0.305950249098735
0.946,0.2835464719669973
0.948,0.28219273377149495
0.95,0.2569170344642333
0.952,0.2753928030624948
0.954,0.27988556644380874
0.956,0.2815648169464991
0.958,0.256027846186974
0.96,0.25228666245728254
0.962,0.2529041966096903
0.964,0.23985341123073822
0.966,0.19251993489286356
0.968,0.2113511105138289
0.97,0.21608444274665575
0.972,0.20369579531529103
0.974,0.20688530383678919
0.976,0.2008277854109244
0.978,0.18239001373102365
0.98,0.149656642908096
0.982,0.17898854020017255
0.984,0.16379870498256632
0.986,0.15353376568331234
0.988,0.12144466088138964
0.99,0.10705479223426888
0.992,0.1565347882249538
0.994,0.11029003868265295
0.996,0.10759758802786305
0.998,0.09613217861609792
1.0,0.09922145978159962
1.002,0.07226428535338209
1.004,0.08652622035471717
1.006,0.04630908450609818
1.008,0.05061248156651864
1.01,0.04554313891182492
1.012,0.03815975333113761
1.014,0.035307707716645924
1.016,0.043876681786776374
1.018,0.013028831529686022
1.02,-0.0032420621212810525
1.022,0.03150687028660669
1.024,0.002835054121400971
1.026,-0.0038691064813907534
1.028,-0.0035725511559013432
1.03,-0.010727685539588135
1.032,-0.007509325799846794
1.034,-0.012898009329765174
1.036,-0.01864018681180726
1.038,-0.011595830420181873
1.04,-0.022653192264778348
1.042,0.019815676721866973
1.044,-0.00962201967333767
1.046,-0.01782540680317236
1.048,-0.03449926288479864
1.05,-0.012015954539688877
1.052,-0.0009064295741855691
1.054,-0.03823941237111668
1.056,-0.004823059739768905
1.058,-0.016669692562087553
1.06,-0.02899354133525581
1.062,-0.01347642244378597
1.064,-0.02209550433768415
1.066,-0.028305581155515416
1.068,-0.03232598260534553
1.07,0.013938462622945496
1.072,-0.031482222592361504
1.074,-0.012024901787999332
1.076,-0.00974925473808857
1.078,0.002473930380310388
1.08,-0.054407122043994637
1.082,-0.02148032646985895
1.084,-0.03973227671677724
1.086,-0.020580780827914685
1.088,-0.02284050279190214
1.09,-0.027387543654589508
1.092,8.330865716093896e-05
1.094,-0.02606112365516376
1.096,-0.03427536610163351
1.098,-0.0183801361186121
1.1,-0.024372943234855116
1.102,-0.030707791465925314
1.104,-0.02542767259182985
1.106,-0.024400380574176418
1.108,-0.031239100066176154
1.11,-0.03629477857459327
1.112,-0.006148322517782008
1.114,-0.03752054837275302
1.116,0.0018105964748152484
1.118,-0.0267606387200095
1.12,-0.06788737243036012
1.122,-0.047485966960076426
1.124,-0.05728642689676332
1.126,-0.05998360241105451
1.128,-0.026516120506688442
1.13,-0.05132727122182219
1.132,-0.036716173477249925
1.134,-0.0360564796859904
1.136,-0.06907554364941844
1.138,-0.035343320264991214
1.14,-0.027080653246499924
1.142,-0.05156667445327892
1.144,-0.05333769798915091
1.146,-0.0258847514371276
1.148,-0.05582380275935225
1.15,-0.03613679787932604
1.152,-0.037276345627001314
1.154,-0.04462966737914964
1.156,-0.07546096750073981
1.158,-0.05346435059354339
1.16,-0.013123227685392326
1.162,-0.05363026552268001
1.164,-0.03454250977885834
1.166,-0.044550942598769384
1.168,-0.05411594795195517
1.17,-0.05758311012727969
1.172,-0.055832724208439155
1.174,-0.02891706236049192
1.176,-0.04791403320529827
1.178,-0.06127109300325391
1.18,-0.06563917083302008
1.182,-0.03982227353733982
1.184,-0.024581953935923495
1.186,-0.07209393361490474
1.188,-0.03393104453464527
1.19,-0.06328001971050445
1.192,-0.0783651045177026
1.194,-0.06048181339009448
1.196,-0.028538558856081073
1.198,-0.03506988654652956
1.2,-0.055811555406691506
1.202,-0.08166002516045721
1.204,-0.06616103890693187
1.206,-0.08919161725848418
1.208,-0.06105202561846304
1.21,-0.04060027940197666
1.212,-0.07886369808732721
1.214,-0.039917850951031224
1.216,-0.04853260623552877
1.218,-0.08975601373776121
1.22,-0.05432473547525453
1.222,-0.05090426234030748
1.224,-0.03081483812286368
1.226,-0.0756038327974656
1.228,-0.08035481865652572
1.23,-0.05427335411374985
1.232,-0.07312078079072136
1.234,-0.06960106142643116
1.236,-0.06793781495234075
1.238,-0.07118429777629619
1.24,-0.053107258507713806
1.242,-0.08183296876964216
1.244,-0.06905036114719598
1.246,-0.03194924553901622
1.248,-0.07223674806996516
1.25,-0.055650029937618806
1.252,-0.08073736360784821
1.254,-0.06916114409811969
1.256,-0.059347521675789085
1.258,-0.07269270561602181
1.26,-0.08686263168786873
1.262,-0.07640154104235512
1.264,-0.07025878192053876
1.266,-0.05987538871321204
1.268,-0.08562380740328118
1.27,-0.08203508288915161
1.272,-0.06110241578715126
1.274,-0.07803801164464208
1.276,-0.07602674095773101
1.278,-0.06646991563796147
1.28,-0.07538009323526342
1.282,-0.07877620229128597
1.284,-0.0498204280247818
1.286,-0.08924893179977604
1.288,-0.06691576069071198
1.29,-0.059859457461663636
1.292,-0.07586305764162238
1.294,-0.0725411409384677
1.296,-0.054081173238704046
1.298,-0.1031660443300157
1.3,-0.08706274210947842
1.302,-0.09378936241597707
1.304,-0.07532430012888944
1.306,-0.0572231473006329
1.308,-0.06337769513534311
1.31,-0.1040941969071958
1.312,-0.07364204121084057
1.314,-0.08355827770864623
1.316,-0.06488068694928475
1.318,-0.09850602341160437
1.32,-0.06110340064294234
1.322,-0.07796212930662447
1.324,-0.05243218841327438
1.326,-0.08839255047866185
1.328,-0.09287010442493351
1.33,-0.09439002709679362
1.332,-0.08660904803656232
1.334,-0.09366387889804706
1.336,-0.05446412578654703
1.338,-0.07301586290046365
1.34,-0.06835458994290014
1.342,-0.062051839646351116
1.344,-0.04878510421958729
1.346,-0.07018048476337492
1.348,-0.01983020820772414
1.35,-0.04506730643421315
1.352,-0.051872643056359725
1.354,0.0014040569314912904
1.356,-0.03700938348040078
1.358,-0.006972289745712919
1.36,-0.012490843843929315
1.362,-0.014939738014843086
1.364,-0.0024844939888252126
1.366,-0.037111967669616996
1.368,0.0017269186766581983
1.37,0.015957667935427047
1.372,-0.029766235726603106
1.374,-0.009684849263430087
1.376,-0.005313210501441522
1.378,-0.005617552328828063
1.38,0.010988926547985682
1.382,0.0308713707945065
1.384,0.007514568970401234
1.386,0.007206266208024988
1.388,-0.017308275035979964
1.39,0.0049250268742632
1.392,0.021732296991849996
1.394,0.01420945635078794
1.396,0.010697440924331612
1.398,0.011427635857725955
1.4,-0.0061893691214921645
1.402,-0.010554949506688385
1.404,-0.014484071177950556
1.406,-0.03075004677035143
1.408,-0.034314489679865216
1.41,-0.023065313150433385
1.412,-0.01656273033228766
1.414,-0.034436203330692944
1.416,-0.0287618204409533
1.418,-0.05177972493038299
1.42,-0.046388315033977855
1.422,-0.07591501022639577
1.424,-0.07443923751259236
1.426,-0.06673568604298526
1.428,-0.0472558847340497
1.43,-0.08717451542741599
1.432,-0.08251294233686945
1.434,-0.1550281638317568
1.436,-0.24155520189339255
1.438,-0.22753609362740643
1.44,-0.27171857696079876
1.442,-0.26049482974149724
1.444,-0.21323081147770767
1.446,-0.1952553983295402
1.448,0.42617849516832224
1.45,0.6173905562650562
1.452,0.79104864309518
1.454,0.8371398068648328
1.456,0.7115267139516761
1.458,0.4703536854234132
1.46,0.2601989633665937
1.462,0.08419960508013394
1.464,-0.030981740477285122
1.466,-0.07815018521829908
1.468,-0.11704780930714484
1.47,-0.11457117504594992
1.472,-0.1555608524173979
1.474,-0.2374963300249113
1.476,-0.28829368399456134
1.478,-0.3550568302106833
1.48,-0.34336384299920997
1.482,-0.3491660446591207
1.484,-0.3051198340108828
1.486,-0.21415911245687524
1.488,-0.15999938024622096
1.49,-0.1313734986645902
1.492,-0.1156681822631689
1.494,-0.1019464645876335
1.496,-0.11015272987706605
1.498,-0.09330567586490851
1.5,-0.10345236264227042
1.502,-0.10238463500308004
1.504,-0.07107395359656853
1.506,-0.0928990017091975
1.508,-0.07831445897938599
1.51,-0.1036233572727679
1.512,-0.0791166395709195
1.514,-0.08248130085143174
1.516,-0.048360180685757745
1.518,-0.06387443872421705
1.52,-0.04697425067965993
1.522,-0.06098718602491393
1.524,-0.0381384480435872
1.526,-0.009021479372378254
1.528,-0.03646988252999158
1.53,-0.009466069415371217
1.532,0.010803190105779242
1.534,-0.025788588560374994
1.536,0.010330817093799651
1.538,-0.0017909954867032002
1.54,0.012837041422555005
1.542,0.02256630283540594
1.544,0.04299864175021727
1.546,0.04876013329185941
1.548,0.0511944026576121
1.55,0.04385316569008332
1.552,0.06215326652327499
1.554,0.09278893697896516
1.556,0.0860361627009902
1.558,0.08510938100868945
1.56,0.09530704786772731
1.562,0.11839388930025244
1.564,0.13903507833443818
1.566,0.11254655474595603
1.568,0.14175782889034047
1.57,0.12315512728488702
1.572,0.16288545632060253
1.574,0.14612920893469333
1.576,0.17007044964720427
1.578,0.15144875383053646
1.58,0.1688661472450387
1.582,0.18746861074733226
1.584,0.2102865642554306
1.586,0.18196509606674344
1.588,0.1959299287790796
1.59,0.20716091605481501
1.592,0.1866734297216205
1.594,0.17298657207636492
1.596,0.18507238916319046
1.598,0.14363259507271672
1.6,0.19290397837657797
1.602,0.18179997363346498
1.604,0.1723054881278899
1.606,0.17683748845750177
1.608,0.1840786366483334
1.61,0.18201226941431656
1.612,0.1499073273646354
1.614,0.1927048938172017
1.616,0.12736138605943384
1.618,0.17399601750723348
1.62,0.18597972535688115
1.622,0.1366906332898343
1.624,0.187078552018962
1.626,0.17213726488665518
1.628,0.1451909046274356
1.63,0.13889366512244028
1.632,0.1681113277086702
1.634,0.15163652616923481
1.636,0.10701590866221725
1.638,0.13318328537880103
1.64,0.11145313948512521
1.642,0.1183201932391357
1.644,0.1025216495814933
1.646,0.08509925483508897
1.648,0.0825591710765363
1.65,0.05294165614525694
1.652,0.07176043549621107
1.654,0.05375856116720805
1.656,0.06933665973522286
1.658,0.05442518833962708
1.66,0.04439626410898511
1.662,0.02287268786087755
1.664,0.03678703457455312
1.666,0.017941305328164018
1.668,0.009921808406834926
1.67,0.006635076503030779
1.672,-0.013207598074063442
1.674,-0.011190474065379446
1.676,-0.010763589993048418
1.678,-0.037777963254299565
1.68,-0.024296105252041327
1.682,-0.03397146168167244
1.684,-0.038728289476739196
1.686,-0.058770654086615554
1.688,-0.055465041346402934
1.69,-0.04252778020413961
1.692,-0.06304426158377621
1.694,-0.05440718899674502
1.696,-0.06771826151199686
1.698,-0.0798831713356873
1.7,-0.06570101522874776
1.702,-0.09022076578818375
1.704,-0.09017255578921039
1.706,-0.062373184842965904
1.708,-0.07921413369207464
1.71,-0.06505499041997746
1.712,-0.0536785622529879
1.714,-0.07961541086895522
1.716,-0.064123313985169
1.718,-0.07690134728578432
1.72,-0.0690079845115379
1.722,-0.05663296584884694
1.724,-0.05860823382120205
1.726,-0.06544294685259519
1.728,-0.09144506389872097
1.73,-0.08574650951855982
1.732,-0.06169700290168286
1.734,-0.05822174984199439
1.736,-0.05330742024765092
1.738,-0.07468116676945744
1.74,-0.08522605452691794
1.742,-0.0722074932443506
1.744,-0.04223848569055294
1.746,-0.0689161833622068
1.748,-0.07328776758822507
1.75,-0.09389805910536762
1.752,-0.07554945848000688
1.754,-0.08737334610300596
1.756,-0.05290346741723077
1.758,-0.0854981896587495
1.76,-0.08339664608409242
1.762,-0.07412356799578142
1.764,-0.06046800174189985
1.766,-0.06254419954048704
1.768,-0.0452636782802598
1.77,-0.08158788130420404
1.772,-0.05490578492008417
1.774,-0.05087970479640329
1.776,-0.06813962249064645
1.778,-0.0880062127282712
1.78,-0.04758278866717862
1.782,-0.05652294902189451
1.784,-0.07085164111565675
1.786,-0.08497901816756817
1.788,-0.06247670654755839
1.79,-0.04879341140075384
1.792,-0.07027391359750257
1.794,-0.0599441223623888
1.796,-0.04040032286372819
1.798,-0.05450941993906174
1.8,-0.023972425576854153
1.802,-0.05943725933544607
1.804,-0.05997220839773361
1.806,-0.046421315995770505
1.808,-0.03936141371526162
1.81,-0.07200980445919021
1.812,-0.041429354875460095
1.814,-0.034678607380588804
1.816,-0.06254727146359747
1.818,-0.057603156312910006
1.82,-0.044127159252727755
1.822,-0.04132729412125625
1.824,-0.0422460596657775
1.826,-0.04195183404690141
1.828,-0.05033579317002312
1.83,-0.05890550201625833
1.832,-0.03955476280621433
1.834,-0.04389187924674878
1.836,-0.023903145340394415
1.838,-0.0709223084214591
1.84,-0.04335147452226663
1.842,-0.0453586678836638
1.844,-0.06184283944311649
1.846,-0.04252496970875023
1.848,-0.0544920032183086
1.85,-0.02105347600884582
1.852,-0.03477161118311
1.854,-0.03609511801491397
1.856,-0.02860449266176102
1.858,-0.05329142040987888
1.86,-0.034670155092069534
1.862,-0.053887228511390675
1.864,-0.058560016582744116
1.866,-0.04043311403689367
1.868,-0.05040837358107001
1.87,-0.057985001418131
1.872,-0.035305799667792334
1.874,-0.04912367327595519
1.876,-0.04051026036363929
1.878,-0.017843093532639596
1.88,-0.007616361171439049
1.882,-0.023572450496613648
1.884,0.0037474116747991813
1.886,-0.03361300199483814
1.888,-0.0036033791485573096
1.89,-0.044720468917316764
1.892,-0.027476607094888222
1.894,-0.01800210896944786
1.896,-0.025995105012348325
1.898,-0.04722721820524144
1.9,-0.012700118979216154
1.902,-0.034008622870890265
1.904,-0.017154975571687478
1.906,-0.03434534387552872
1.908,-0.019867117858516695
1.91,-0.028019060185554712
1.912,-0.029586152603704743
1.914,-0.03213043847224799
1.916,-0.009591185532826044
1.918,-0.014309304813749845
1.92,-0.028228054986257266
1.922,-0.043448946749764884
1.924,-0.03175136110709899
1.926,-0.011429342560345146
1.928,-0.026730308115303764
1.93,-0.003011296078352327
1.932,-0.028006676069322372
1.934,-0.01125022843355887
1.936,-0.01728660743670743
1.938,-0.03914389246789816
1.94,-0.03447761441392468
1.942,-0.02653480611765452
1.944,-0.005217118995241888
1.946,-0.031232524909541436
1.948,-0.015654475232906518
1.95,-0.029295943695217114
1.952,-0.03363483070786892
1.954,-0.004115582655899067
1.956,-0.029391248445568015
1.958,-0.03388905767165616
1.96,-0.017258150613956316
1.962,-0.006375661347988075
1.964,-0.022455991646441555
1.966,-0.027739706647266212
1.968,-0.01236513821492289
1.97,0.005734587779483417
1.972,0.0022359576380638776
1.974,0.013945551141363014
1.976,-0.009640885724629417
1.978,-0.019741443011842726
1.98,-0.020156497205768863
1.982,-0.010602397958394209
1.984,-0.009471231476921593
1.986,-0.007718079360187119
1.988,-0.0074038867840639285
1.99,-0.0008314704725522888
1.992,-0.008459268785491227
1.994,-0.0026756638735046714
1.996,0.036303116232543085
1.998,-0.003913708193718243
2.0,-0.01906209111804192
2.002,-0.00491296392163151
2.004,0.0012537829212390993
2.006,0.008433957135255393
2.008,0.02229474269514428
2.01,0.031091046733491116
2.012,0.052838891303197986
2.014,0.05756500987602278
2.016,0.06636674578310829
2.018,0.05492187529065591
2.02,0.0745249704212647
2.022,0.07891459561576464
2.024,0.0534552715580231
2.026,0.07963882566108968
2.028,0.07139173974060047
2.03,0.09367900854527857
2.032,0.0898330949596999
2.034,0.0825861016125995
2.036,0.08038571751255788
2.038,0.09526954020919533
2.04,0.13185367800858788
2.042,0.11570149341968748
2.044,0.09649281446952451
2.046,0.1002442269720454
2.048,0.11515990675305797
2.05,0.0901706134113139
2.052,0.11991726658619623
2.054,0.11687319091892934
2.056,0.10860716470858288
2.058,0.11202117427629972
2.06,0.1039967288893973
2.062,0.10135721724109006
2.064,0.12716721846063342
2.066,0.10499306195188078
2.068,0.11605933181986866
2.07,0.0799766942785525
2.072,0.10169777463310503
2.074,0.12585610885954565
2.076,0.07568463166971694
2.078,0.09643228967573339
2.08,0.06571469509752476
2.082,0.06964406679059357
2.084,0.013905176148837482
2.086,0.0355354134280815
2.088,0.06476666276080588
2.09,0.05783197689103767
2.092,0.0374042196357219
2.094,0.04514056770646582
2.096,0.027885322922276384
2.098,0.016986471658629217
2.1,-0.03605699701977025
2.102,-0.07547971500505772
2.104,-0.13111253090981723
2.106,-0.14700328570433274
2.108,-0.14701960879231907
2.11,-0.12426919263236733
2.112,-0.07161541923129797
2.114,0.4490113370593099
2.116,0.6698060818122822
2.118,0.8816727976151055
2.12,0.9529185224187934
2.122,0.8867229536536125
2.124,0.676634553173237
2.126,0.45318429363290386
2.128,0.26679437679541174
2.13,0.1329119659493205
2.132,0.08367582875360864
2.134,0.033661105237593116
2.136,-0.00021524201163739985
2.138,-0.005251756434804324
2.14,-0.07185573165276724
2.142,-0.12564337942277182
2.144,-0.19953314406817985
2.146,-0.2243449330800623
2.148,-0.21476410283501463
2.15,-0.164677928327319
2.152,-0.09815016117810692
2.154,-0.03565276254369531
2.156,-0.011622330759794129
2.158,0.0036738338563611314
2.16,0.023538837951975474
2.162,0.05827908573552446
2.164,0.04487646708048845
2.166,0.052936920968114844
2.168,0.062247261040445714
2.17,0.04817848696600471
2.172,0.05294132887605367
2.174,0.05108771684523513
2.176,0.06176907890010555
2.178,0.06335399637204332
2.18,0.05698381782234418
2.182,0.0919140866729595
2.184,0.0940266883308034
2.186,0.08314214769742673
2.188,0.09999182043100713
2.19,0.09891619293845363
2.192,0.11948154152500604
2.194,0.13828417857334616
2.196,0.13598495977404262
2.198,0.1542034382176716
2.2,0.13787498124148367
2.202,0.1488527602039225
2.204,0.16738879758569145
2.206,0.17234861941216542
2.208,0.17817271472773846
2.21,0.2078363220854216
2.212,0.21016535924975244
2.214,0.19503577290413263
2.216,0.2061121818239546
2.218,0.21936657089106204
2.22,0.23828559449211498
2.222,0.22449900783524684
2.224,0.2308055667157821
2.226,0.25133370457299575
2.228,0.24464098300423948
2.23,0.27511519102610577
2.232,0.2672404341446406
2.234,0.293715856075556
2.236,0.29513975585386
2.238,0.29940782899443874
2.24,0.27388788440732686
2.242,0.3101303244143847
2.244,0.29265751380130167
2.246,0.3224227307150997
2.248,0.31939706913826077
2.25,0.32010579135723244
2.252,0.3309509920862292
2.254,0.35170963208936273
2.256,0.3424116571818296
2.258,0.33202282382006754
2.26,0.3553501884245267
2.262,0.35824571245449627
2.264,0.36027564292796177
2.266,0.32991145281421025
2.268,0.3674061360891541
2.27,0.32462294755215226
2.272,0.34592490300481427
2.274,0.31231763591062717
2.276,0.3676187615482061
2.278,0.33700294871755043
2.28,0.3503371845740127
2.282,0.3413522089356681
2.284,0.3246324068912508
2.286,0.3418879622100176
2.288,0.3207779203645077
2.29,0.330546341591957
2.292,0.3330061371488557
2.294,0.3110259169766209
2.296,0.2877603886606345
2.298,0.28233551527697626
2.3,0.2876130722289283
2.302,0.2956559207184959
2.304,0.2823971530452325
2.306,0.27266865477308044
2.308,0.26592187872321826
2.31,0.26020451596464433
2.312,0.23484967618148644
2.314,0.23082775702299183
2.316,0.2454642389185733
2.318,0.21519925147160038
2.32,0.22932798003770394
2.322,0.2224595370869973
2.324,0.190301808944613
2.326,0.18245385052713947
2.328,0.19556223831014724
2.33,0.21258162701958783
2.332,0.1888807253268426
2.334,0.1725625238892781
2.336,0.15807773975611802
2.338,0.1608213689244387
2.34,0.16546354427033722
2.342,0.15700756808558108
2.344,0.15497272240743756
2.346,0.1389209356140592
2.348,0.13082870113891693
2.35,0.12494328525683841
2.352,0.08503860502078112
2.354,0.10811537440109184
2.356,0.11519795347407938
2.358,0.12043761105477487
2.36,0.05841658575031859
2.362,0.09842793667087404
2.364,0.085445459259945
2.366,0.05647105293815438
2.368,0.06640587518935752
2.37,0.09576832150763635
2.372,0.0865225052544971
2.374,0.08745355079114854
2.376,0.08935459342035208
2.378,0.0799462905732207
2.38,0.07237326118457406
2.382,0.09039041799835336
2.384,0.08421329237514132
2.386,0.0869496626505649
2.388,0.1017197868365008
2.39,0.0775059902113709
2.392,0.09880627144846102
2.394,0.09577718109179771
2.396,0.09947065164047
2.398,0.11349268526766376
2.4,0.10458872678819407
2.402,0.06784067031291104
2.404,0.10300998418604002
2.406,0.0838249303007466
2.408,0.08677106343319932
2.41,0.09537858139024956
2.412,0.0950166766255716
2.414,0.07153523271251955
2.416,0.0922430943663221
2.418,0.08918250375788574
2.42,0.08215143984346994
2.422,0.11878318342969583
2.424,0.0919663665766685
2.426,0.09834219659573802
2.428,0.07356096091388963
2.43,0.09967376507552198
2.432,0.09012768502308169
2.434,0.0875391312095093
2.436,0.07939821244331595
2.438,0.10009755839635759
2.44,0.11759997249371107
2.442,0.09123325105486797
2.444,0.08759837101445062
2.446,0.10296432936232217
2.448,0.08765424643805585
2.45,0.09724358660874811
2.452,0.09291377799544605
2.454,0.09245022879077017
2.456,0.11041772894704792
2.458,0.10608073802361291
2.46,0.1018094942649065
2.462,0.1149662005280365
2.464,0.06708373098737282
2.466,0.09677487144801872
2.468,0.10760908708791646
2.47,0.1033635708298549
2.472,0.06601696407473939
2.474,0.07845121300772206
2.476,0.10721762259757409
2.478,0.08457437344395753
2.48,0.07646723122601441
2.482,0.07717338231861397
2.484,0.07074079028355051
2.486,0.09617715206394634
2.488,0.1015329253485883
2.49,0.05786447178002224
2.492,0.09093316508793622
2.494,0.09560486692832765
2.496,0.09418480046342266
2.498,0.09928014296932341
2.5,0.09966442051549289
2.502,0.12621409274968348
2.504,0.0751275703179403
2.506,0.06754833926136065
2.508,0.06408461377897293
2.51,0.09336594034752504
2.512,0.07032383219298106
2.514,0.11118258246466958
2.516,0.08362834066842459
2.518,0.08947765464883088
2.52,0.1065862579310388
2.522,0.08721407726595089
2.524,0.084078379385697
2.526,0.09247091941688118
2.528,0.0783106723274604
2.53,0.11500572845463213
2.532,0.08338880928492717
2.534,0.07297067470699119
2.536,0.10530334182596848
2.538,0.10020300165703244
2.54,0.09759018209000578
2.542,0.08085048761499623
2.544,0.08782724277064669
2.546,0.115881730465306
2.548,0.08253479488532697
2.55,0.11841610425407069
2.552,0.07991218722502055
2.554,0.09753010066794889
2.556,0.09215941831833066
2.558,0.09486988351116436
2.56,0.08902199631941626
2.562,0.08880730096920743
2.564,0.0841428554162706
2.566,0.08193867425954733
2.568,0.08921281657532552
2.57,0.08716178024382433
2.572,0.07797597731720403
2.574,0.10637934635871277
2.576,0.09006871941864505
2.578,0.07667124942314874
2.58,0.10209304512318057
2.582,0.08688788489884443
2.584,0.09872798676527021
2.586,0.09669303708165346
2.588,0.10847758973812383
2.59,0.07737485528358722
2.592,0.10164932274637847
2.594,0.10910164297274606
2.596,0.10592981186434443
2.598,0.07407888077983882
2.6,0.07757757597760417
2.602,0.07221776181556058
2.604,0.09811621542244327
2.606,0.09173170054773054
2.608,0.10474302857125341
2.61,0.09443312959446278
2.612,0.07870796460998657
2.614,0.09774290232501748
2.616,0.09341628045486121
2.618,0.09820601939207979
2.62,0.09416825262406278
2.622,0.09467775439358857
2.624,0.03795774139556886
2.626,0.10402558149739503
2.628,0.07103526407648894
2.63,0.10749514007945353
2.632,0.08805618399731047
2.634,0.09935517319563518
2.636,0.09423641436158847
2.638,0.10687732517857958
2.64,0.08119594881976487
2.642,0.09909166480604287
2.644,0.10708887151999207
2.646,0.08816946080519068
2.648,0.08944150489307945
2.65,0.08907814125332142
2.652,0.08418316558166675
2.654,0.08005855286132911
2.656,0.09907255504532496
2.658,0.07494529641574693
2.66,0.06766498617505222
2.662,0.0965552765228751
2.664,0.06621239316303326
2.666,0.07232804377628045
2.668,0.11121247987414196
2.67,0.08784990800469669
2.672,0.11524779418589824
2.674,0.11620171397697107
2.676,0.10871451507833611
2.678,0.1443621828882059
2.68,0.10557392726960403
2.682,0.12164705357994246
2.684,0.12134530111609329
2.686,0.1423865926150843
2.688,0.13774002241067498
2.69,0.13880176145314568
2.692,0.1683143378306559
2.694,0.1439345971797268
2.696,0.15209270168064326
2.698,0.13343666960733475
2.7,0.14271529652024043
2.702,0.15952350658478365
2.704,0.16588852534180662
2.706,0.15849600698198638
2.708,0.17292914709259505
2.71,0.16010631157607627
2.712,0.18084125099002288
2.714,0.17531220467224348
2.716,0.16411250921218912
2.718,0.18789387049666328
2.72,0.16124251565612563
2.722,0.1732767210427915
2.724,0.16735524745269714
2.726,0.12939433376257992
2.728,0.16288713421137796
2.73,0.1522589121068032
2.732,0.13497277731277554
2.734,0.14726026498248884
2.736,0.1543652978532735
2.738,0.1581876078484192
2.74,0.13406539705690096
2.742,0.11815041701847695
2.744,0.1190976382450522
2.746,0.0909648815282146
2.748,0.1184128903818113
2.75,0.12151480719575498
2.752,0.11211988582400009
2.754,0.11914896720526949
2.756,0.09738521953028931
2.758,0.06672260215966228
2.76,0.0869527148653855
2.762,0.07264734090105482
2.764,0.03946202873178109
2.766,0.06708230948313967
2.768,-0.03858668583764909
2.77,-0.07279993779196049
2.772,-0.12865515400288507
2.774,-0.12337755019932846
2.776,-0.08640806734488676
2.778,-0.039253379631005565
2.78,0.3801594435375876
2.782,0.6162499964209149
2.784,0.870410866249215
2.786,0.9606420962383523
2.788,0.9626245798922618
2.79,0.7935064986031379
2.792,0.5466561308875026
2.794,0.3235997242606411
2.796,0.21482796163004234
2.798,0.0943803047665708
2.8,0.06590081329897618
2.802,0.045983891274453896
2.804,2.1446743720820133e-06
2.806,-0.03643833398402654
2.808,-0.10099327708091045
2.81,-0.1883421667399193
2.812,-0.20677108498342706
2.814,-0.23037757308334406
2.816,-0.20169013894726787
2.818,-0.10618744027525999
2.82,-0.07231758499913091
2.822,-0.005079626696096411
2.824,0.02093601427134533
2.826,0.018010334775760417
2.828,0.0662436460787043
2.83,0.027721658027137608
2.832,0.06789958300232883
2.834,0.02430496485294638
2.836,0.04746405161828364
2.838,0.05494306809903442
2.84,0.07384216943017746
2.842,0.061805650702319276
2.844,0.07773462740838868
2.846,0.08500937043245231
2.848,0.07239934790411831
2.85,0.06586250247324578
2.852,0.09601817063335161
2.854,0.09867712575238832
2.856,0.08722657707913016
2.858,0.0985810723185776
2.86,0.10439862020502914
2.862,0.13679677470588955
2.864,0.11215401850730122
2.866,0.1297282768953786
2.868,0.1334339152164668
2.87,0.13180343990398555
2.872,0.14195619152943162
2.874,0.18023141631446213
2.876,0.1692729722302532
2.878,0.16259836156842986
2.88,0.17184137698161947
2.882,0.18221584763331114
2.884,0.16559247276416886
2.886,0.18867747436156723
2.888,0.2025121449651998
2.89,0.21942219557057743
2.892,0.21484233726509336
2.894,0.21677852751437673
2.896,0.22175842452549754
2.898,0.24632527296489085
2.9,0.25676686484613725
2.902,0.2672806027849152
2.904,0.256503160299921
2.906,0.27546711306454763
2.908,0.25712172601770905
2.91,0.2498714679941583
2.912,0.28630875587503174
2.914,0.27031618271862884
2.916,0.2897360885209306
2.918,0.2876591254073727
2.92,0.3026202862731773
2.922,0.32345895898590066
2.924,0.3001520917694622
2.926,0.26864683142470563
2.928,0.3273690162989116
2.93,0.28004984278931094
2.932,0.2804568742100415
2.934,0.30515517741312953
2.936,0.3152895634756043
2.938,0.2912542838888442
2.94,0.2930215694605093
2.942,0.3191053763555034
2.944,0.32390862898691064
2.946,0.26946267081037373
2.948,0.2860697066769176
2.95,0.30264169549214137
2.952,0.291014655451947
2.954,0.28244744720116277
2.956,0.2636028640101711
2.958,0.26219716949227445
2.96,0.24779450009125437
2.962,0.2523959035568536
2.964,0.22253252963176928
2.966,0.2125122841897262
2.968,0.21726072988704026
2.97,0.21806933306252113
2.972,0.22209119186404097
2.974,0.1861949379526652
2.976,0.17850789954209687
2.978,0.16912110118774953
2.98,0.1799694534551492
2.982,0.16880415784396285
2.984,0.16172796569571768
2.986,0.16248209269624733
2.988,0.14378897337003763
2.99,0.14528964484742485
2.992,0.11427890626570208
2.994,0.11979386633066377
2.996,0.12616166113843677
2.998,0.10958528974369687
3.0,0.06757819370144749
3.002,0.09891918206122306
3.004,0.09197394861701907
3.006,0.052482470757218895
3.008,0.08305615119746897
3.01,0.06335879451022533
3.012,0.04951841764966624
3.014,0.05238478051623512
3.016,0.02087592526843626
3.018,0.044539953902124445
3.02,0.020661487424696978
3.022,0.012902148858010954
3.024,0.03073222449971442
3.026,-0.00795302850285952
3.028,-0.0003019257497770193
3.03,-0.0011708296070697746
3.032,-0.026979505329598766
3.034,-0.020048039939708405
3.036,-0.02547129607619253
3.038,-0.03846513843229182
3.04,-0.027870774558471492
3.042,-0.0030764313107405554
3.044,0.0035171608907751933
3.046,-0.04454676927926611
3.048,-0.010128081536056726
3.05,-0.002752946537746506
3.052,-0.008708560813627475
3.054,-0.010920061808503478
3.056,-0.0059814572102373145
3.058,-0.019764121383784444
3.06,-0.020580972601206258
3.062,-0.03097185418330661
3.064,-0.02775071607695682
3.066,0.0005381780109090262
3.068,-0.0175096405804583
3.07,-0.02133501390921565
3.072,-0.027344309547401757
3.074,-0.008568666392674073
3.076,-0.014323097281139754
3.078,-0.01785902894902213
3.08,-0.015622316076647689
3.082,-0.036057164543155086
3.084,-0.021283227533816448
3.086,-0.02844738731038155
3.088,-0.007667098037478861
3.09,-0.02740404468394304
3.092,-0.03360869704184875
3.094,-0.013955640196790693
3.096,-0.025397032236447913
3.098,0.0025138656675220234
3.1,-0.02369849022363769
3.102,-0.03136469414669455
3.104,-0.02933386883187984
3.106,-0.06301294941189961
3.108,-0.044623622630992926
3.11,-0.022193027414336763
3.112,-0.026842645344371183
3.114,-0.03329943936579652
3.116,-0.05531690770614837
3.118,-0.03279044600916997
3.12,-0.05167281022586863
3.122,-0.04902127178225897
3.124,-0.0293434979091892
3.126,-0.0387489000603405
3.128,-0.04462272226292921
3.13,-0.03293170910037152
3.132,-0.032246983767926604
3.134,-0.06643690520982515
3.136,-0.025290968874155675
3.138,-0.03767422626608683
3.14,-0.054383776789370016
3.142,-0.013228658668015304
3.144,-0.037600558620458656
3.146,-0.03519158315153136
3.148,-0.032531155252586284
3.15,-0.023961894660791593
3.152,-0.028287815223177366
3.154,-0.05819710199597871
3.156,-0.04889729821330008
3.158,-0.024946975318251303
3.16,-0.04418605035265602
3.162,-0.018122856660404786
3.164,-0.052187376777910376
3.166,-0.03876895327696882
3.168,-0.055511790537844566
3.17,-0.0558804965795507
3.172,-0.04503295090032001
3.174,-0.043736029407201525
3.176,-0.027418723178390378
3.178,-0.0321848163950636
3.18,-0.048746390738516415
3.182,-0.049695567048828056
3.184,-0.06974470233672153
3.186,-0.04254548118312426
3.188,-0.06625370333194801
3.19,-0.040648802917764335
3.192,-0.04410020388490994
3.194,-0.06569956130561902
3.196,-0.08704199488095872
3.198,-0.03491827337775607
3.2,-0.06622372979321037
3.202,-0.06664108164406352
3.204,-0.05506595179341037
3.206,-0.03680242884906678
3.208,-0.06604444718009626
3.21,-0.06944671528550507
3.212,-0.05951921374041887
3.214,-0.060871049580630096
3.216,-0.032494589885303696
3.218,-0.05970121264347279
3.22,-0.06095834031873448
3.222,-0.05006530768332594
3.224,-0.04631402123383617
3.226,-0.06188691633244627
3.228,-0.0727247003099827
3.23,-0.07033650388580402
3.232,-0.06218416763519688
3.234,-0.07184504356735508
3.236,-0.05838424571162935
3.238,-0.056834565495745885
3.24,-0.051855927230055984
3.242,-0.07401999150883777
3.244,-0.07824933256889681
3.246,-0.05826125789369415
3.248,-0.06830842997295294
3.25,-0.09304776713284688
3.252,-0.056764883423757996
3.254,-0.04976058125775066
3.256,-0.0897700898454746
3.258,-0.0811524303584339
3.26,-0.0852913467403547
3.262,-0.05714577220026867
3.264,-0.10126600685567123
3.266,-0.06760551054833044
3.268,-0.07669993013141556
3.27,-0.09064125359579053
3.272,-0.06894257396529861
3.274,-0.06769486392631827
3.276,-0.07294899014464723
3.278,-0.06416411179908131
3.28,-0.07925022059681476
3.282,-0.05671133932900696
3.284,-0.07010871539043184
3.286,-0.06299024121687366
3.288,-0.0798575503028791
3.29,-0.07311371826254896
3.292,-0.06580859416034915
3.294,-0.06692357307270681
3.296,-0.05872770230256957
3.298,-0.06482755207135953
3.3,-0.06569949621618942
3.302,-0.07939114655647744
3.304,-0.0731367255351327
3.306,-0.09616911174204867
3.308,-0.07971254214546755
3.31,-0.09028188029416023
3.312,-0.07974609196153504
3.314,-0.048644075709075994
3.316,-0.07919809354111645
3.318,-0.05144776290856271
3.32,-0.07627941637288459
3.322,-0.09070539856937837
3.324,-0.0709812001792648
3.326,-0.08979708952031559
3.328,-0.05727274431065281
3.33,-0.0641996825983722
3.332,-0.08021804785708889
3.334,-0.09347000328078617
3.336,-0.06779257975942479
3.338,-0.06706087332592392
3.34,-0.0855318297087859
3.342,-0.03619276550191134
3.344,-0.04243746680234206
3.346,-0.030308475162888013
3.348,-0.030959395550532155
3.35,-0.04856478517909314
3.352,-0.012254552221650061
3.354,-0.030472080064582522
3.356,-0.04431255937473535
3.358,-0.00579768113067896
3.36,-0.0020952033165576468
3.362,0.012218655039060382
3.364,-0.01845959847424622
3.366,-0.006770834877654645
3.368,0.001423435967688382
3.37,-0.022169051361591658
3.372,-0.009788415937878664
3.374,0.006137482975454363
3.376,0.0017893263875098835
3.378,-0.01474725871955495
3.38,0.018845434352106942
3.382,0.007249828038329547
3.384,0.003990802992010358
3.386,0.01699141088160698
3.388,0.0030594879832025043
3.39,-0.007016945285345166
3.392,-0.0046626443700074635
3.394,-0.01176573501337854
3.396,0.01683230349958893
3.398,-0.020008990592221092
3.4,-0.022471340864348398
3.402,-0.016829056755036396
3.404,-0.03390521855495642
3.406,-0.031093929894833266
3.408,-0.03262806652835594
3.41,-0.011465625274985078
3.412,-0.06520833194672317
3.414,-0.03810367182519661
3.416,-0.05655536268373756
3.418,-0.03811086308325335
3.42,-0.05643043058752463
3.422,-0.06026996566818581
3.424,-0.06910025440660224
3.426,-0.0884046420541158
3.428,-0.07524556915103572
3.43,-0.06898809326483171
3.432,-0.11273813268615697
3.434,-0.15917350089930343
3.436,-0.24182258980234808
3.438,-0.26331262574405806
3.44,-0.28832916876311815
3.442,-0.2660285944897373
3.444,-0.2266749284060875
3.446,-0.1741025093401808
3.448,0.3893395962845281
3.45,0.6429083587806641
3.452,0.8059947258165969
3.454,0.8315975422119279
3.456,0.7172450371274655
3.458,0.49037674222464556
3.46,0.2443491075082718
3.462,0.07673242297918485
3.464,-0.025775350983157818
3.466,-0.05065006289522236
3.468,-0.09586610663106658
3.47,-0.09901032243662018
3.472,-0.1704626475812864
3.474,-0.1980220648941185
3.476,-0.27357422840221307
3.478,-0.3561437990668836
3.48,-0.36593227893731867
3.482,-0.3432645082593336
3.484,-0.3004717905436404
3.486,-0.21608970868258662
3.488,-0.1580129383119076
3.49,-0.13702691630255545
3.492,-0.11893511865034523
3.494,-0.11325987862189044
3.496,-0.08521332517243556
3.498,-0.10601666394622236
3.5,-0.09936428386766925
3.502,-0.09769473052495715
3.504,-0.07248277757476747
3.506,-0.05598981399793726
3.508,-0.07131415430464767
3.51,-0.06560164341790821
3.512,-0.06078898921754416
3.514,-0.05620793647724282
3.516,-0.040618961369279324
3.518,-0.0511964987864346
3.52,-0.05998475375215262
3.522,-0.03672688332614744
3.524,-0.031122558199759606
3.526,-0.02431172620738332
3.528,-0.009481142392526804
3.53,-0.012623493061041033
3.532,0.019877003695318085
3.534,0.01808694862459997
3.536,-0.011727912852859148
3.538,0.04033744587862714
3.54,0.024162503389936234
3.542,0.02519258902656257
3.544,0.019226099417596537
3.546,0.03740342471041356
3.548,0.0513563351262782
3.55,0.07672839191712122
3.552,0.07405016496925702
3.554,0.11869442812263105
3.556,0.10564041931184115
3.558,0.09406545752794224
3.56,0.12034494442524382
3.562,0.130849849820436
3.564,0.10891537455281901
3.566,0.12360584611039692
3.568,0.14240298474552493
3.57,0.14005187462512514
3.572,0.1505863894369442
3.574,0.15918404193888064
3.576,0.13562878652920968
3.578,0.18031702334552036
3.58,0.1354754694878399
3.582,0.17738429712571457
3.584,0.16864140663696098
3.586,0.18113381432700348
3.588,0.18120616371790885
3.59,0.19409942979690428
3.592,0.1850993856992269
3.594,0.18094004720013493
3.596,0.18173301609144574
3.598,0.19472491509576753
3.6,0.19676632053202434
3.602,0.19585947078082122
3.604,0.20602524657169574
3.606,0.19090742938567334
3.608,0.18858081001901658
3.61,0.1823583059291044
3.612,0.1929775297908036
3.614,0.19238130093080033
3.616,0.18171753693509723
3.618,0.1608265223902871
3.62,0.15170996143656165
3.622,0.1454199189484909
3.624,0.14452997067930262
3.626,0.15286429085747769
3.628,0.15747752419023212
3.63,0.12584048436012943
3.632,0.1398486647880288
3.634,0.11054392911761413
3.636,0.12277617392201098
3.638,0.11186433080094894
3.64,0.10501584006391428
3.642,0.10788278117547394
3.644,0.08444608275613817
3.646,0.0643498331800664
3.648,0.0821973493292966
3.65,0.05734376322358796
3.652,0.06761448189826594
3.654,0.048693091524097204
3.656,0.0453630056476757
3.658,0.04022533969559346
3.66,0.028601816667692823
3.662,0.050131764573107945
3.664,0.021082499433477214
3.666,-0.015778683888807342
3.668,0.0039753593324096176
3.67,0.00044057443660300765
3.672,-0.013467057555092529
3.674,-0.024713090121610267
3.676,-0.011574737715266847
3.678,-0.02591760804400266
3.68,-0.050369687868869015
3.682,-0.0466867318379532
3.684,-0.05861528510905442
3.686,-0.07166770210193926
3.688,-0.07022189431182597
3.69,-0.034760078794147636
3.692,-0.06354768188020818
3.694,-0.05469976715860443
3.696,-0.07322068444639174
3.698,-0.07914735215908104
3.7,-0.07248778286682254
3.702,-0.08648997563557065
3.704,-0.0987211240834328
3.706,-0.08100515580273862
3.708,-0.08885581219259565
3.71,-0.07225325485953843
3.712,-0.0797370823240121
3.714,-0.07173413183630332
3.716,-0.06265696190814828
3.718,-0.0688724464393956
3.72,-0.08362963233748497
3.722,-0.08142999281583214
3.724,-0.055006411930283626
3.726,-0.06365781988403428
3.728,-0.0748193737111551
3.73,-0.061934345128699386
3.732,-0.07281496692497481
3.734,-0.06009298798468391
3.736,-0.07564191808708212
3.738,-0.07512399493589517
3.74,-0.07951827319303167
3.742,-0.05676662843409898
3.744,-0.06904674315518752
3.746,-0.07121998213705426
3.748,-0.07752420849352586
3.75,-0.08482500238927682
3.752,-0.04897781664697078
3.754,-0.054415670816052884
3.756,-0.06602826307417373
3.758,-0.08087447165270797
3.76,-0.048794949985475046
3.762,-0.07828307957254767
3.764,-0.053174723138663435
3.766,-0.06400083342474502
3.768,-0.048997834761080605
3.77,-0.05818586211315862
3.772,-0.056862776033485836
3.774,-0.0261721463782838
3.776,-0.05927463958921488
3.778,-0.049113547593275714
3.78,-0.07135722832223035
3.782,-0.08603846536418411
3.784,-0.07490227200016221
3.786,-0.054882820996304316
3.788,-0.05998098899619683
3.79,-0.03922118179819764
3.792,-0.04906131452160386
3.794,-0.06025211126687543
3.796,-0.0558438847182263
3.798,-0.07210035269789407
3.8,-0.053352551860761974
3.802,-0.06688977692192488
3.804,-0.05493030317464633
3.806,-0.0719948686564838
3.808,-0.06321442169871852
3.81,-0.058224266488766815
3.812,-0.04157877187382868
3.814,-0.049170373190647654
3.816,-0.03373340784287789
3.818,-0.06261872107658598
3.82,-0.05534683975128231
3.822,-0.07550061735200461
3.824,-0.02896371358542766
3.826,-0.022639111874079344
3.828,-0.06081796396811056
3.83,-0.0891728951421795
3.832,-0.053976901484717475
3.834,-0.05776931275333991
3.836,-0.05240216366698225
3.838,-0.0455513504613107
3.84,-0.02822936036448414
3.842,-0.04757271097855872
3.844,-0.03821547254026408
3.846,-0.060348031457973
3.848,-0.05800280837509682
3.85,-0.06004762503655009
3.852,-0.025299558045016837
3.854,-0.019466690691167146
3.856,-0.054888970658288044
3.858,-0.05094927748486865
3.86,-0.025775455483410963
3.862,-0.06458083140020934
3.864,-0.03640460526961943
3.866,-0.0301021172443145
3.868,-0.04763222532748387
3.87,-0.045372078442574314
3.872,-0.031255098217796824
3.874,-0.04497416715700088
3.876,-0.021134137647253335
3.878,-0.031016960162329067
3.88,-0.04287012248319627
3.882,-0.04182922636290867
3.884,-0.03275448880560061
3.886,-0.04596179999277471
3.888,-0.031904102603656545
3.89,-0.02943717781250537
3.892,-0.03361349154085077
3.894,-0.033338583050418286
3.896,-0.04471605327205439
3.898,-0.002839412541288115
3.9,-0.03330642323844093
3.902,-0.041107915129631425
3.904,-0.0296861216957336
3.906,-0.043248728835856745
3.908,-0.02845952202348395
3.91,-0.00866854258207859
3.912,-0.007743615944231768
3.914,-0.0233254471895358
3.916,-0.013463134761296416
3.918,-0.04033123976951767
3.92,-0.013700952637032172
3.922,-0.027829734626052392
3.924,-0.02572845586318454
3.926,-0.006132001031761397
3.928,-0.02932727424807166
3.93,-0.02538817291460746
3.932,-0.01919627386644919
3.934,-0.02587653513992661
3.936,-0.00915404416703632
3.938,-0.017164782976074298
3.94,-0.020298020980196438
3.942,-0.03552335495313064
3.944,-0.013767518313809717
3.946,0.003389112327336303
3.948,-0.009069689567677498
3.95,-0.042912886014551635
3.952,-0.043640964159833734
3.954,-0.01922100174049815
3.956,-0.01906716537869506
3.958,-0.0029169625590150555
3.96,-0.013414924084077542
3.962,-0.02739280661100917
3.964,-0.015954008029598635
3.966,-0.00755204979931809
3.968,-0.03308426678211912
3.97,-0.009225294121203487
3.972,-0.04685038770876324
3.974,-0.019347254424328133
3.976,-0.00654697586243268
3.978,-0.007658895556046101
3.98,-0.024510047743273918
3.982,0.004118944167117708
3.984,-0.008998584101762241
3.986,-0.01907908268336096
3.988,-0.008445556094065691
3.99,0.0008550489449623877
3.992,-0.0018242318619355663
3.994,0.005773199991333636
3.996,-0.014972680201264433
3.998,0.02332990252048439
4.0,0.004000875556626344
4.002,0.016378234741403992
4.004,-0.0033809371703178346
4.006,0.008505765405142
4.008,0.030543778364404972
4.01,0.030991741621784568
4.012,0.07181104175067334
4.014,0.05771748655741648
4.016,0.024009973411384774
4.018,0.07082204578372119
4.02,0.07246520561797484
4.022,0.06022778404908894
4.024,0.06335642532866467
4.026,0.07162372560050445
4.028,0.07963930837899512
4.03,0.0479698125077883
4.032,0.1250479491866446
4.034,0.09451849200898789
4.036,0.09299162651385205
4.038,0.09712000869377292
4.04,0.10582806944217142
4.042,0.09219766184777188
4.044,0.05954928766453515
4.046,0.11837811066193894
4.048,0.11003696345078974
4.05,0.0875158014834885
4.052,0.10334876591753718
4.054,0.11699770221708235
4.056,0.11205654602165122
4.058,0.11664019898326837
4.06,0.08280538785637678
4.062,0.10887141795558047
4.064,0.09124087042846336
4.066,0.10945408254983596
4.068,0.09918521328439932
4.07,0.09634424244405913
4.072,0.08924562182456443
4.074,0.1232351662588797
4.076,0.0557153757953196
4.078,0.09626783548350024
4.08,0.06989292428227396
4.082,0.08072822189363686
4.084,0.07397298492641671
4.086,0.04689664317941224
4.088,0.07844976540036566
4.09,0.06062089653064286
4.092,0.05054742351162658
4.094,0.07645745568966839
4.096,0.022193599859330924
4.098,0.032519390663169584
4.1,0.02659328786598994
4.102,-0.08911958018003292
4.104,-0.11124893120195824
4.106,-0.15124801996114687
4.108,-0.15342310879338772
4.11,-0.10520278021005565
4.112,-0.061544098082602146
4.114,0.4571464218886689
4.116,0.6647722848916936
4.118,0.8845205143055144
4.12,0.9866112065481715
4.122,0.8781651798314539
4.124,0.6663003085005302
4.126,0.462550039571723
4.128,0.24532161001495856
4.13,0.1243689954309575
4.132,0.07710825540058028
4.134,0.0025151703314409664
4.136,0.03663988627302715
4.138,0.01111372144098651
4.14,-0.06480603048419098
4.142,-0.12672342831106903
4.144,-0.2088456829172669
4.146,-0.22093426491677326
4.148,-0.22372881675508308
4.15,-0.17073204923039417
4.152,-0.1015347842083439
4.154,-0.02754586698695115
4.156,-0.027447962642524342
4.158,0.057911321806977056
4.16,0.029525798684063013
4.162,0.05658740154111032
4.164,0.027868076269624398
4.166,0.034942328994573134
4.168,0.07225013268501984
4.17,0.057334883578523975
4.172,0.05066059357171894
4.174,0.06220590386526358
4.176,0.06588814284101417
4.178,0.08670004785880596
4.18,0.06439259995742137
4.182,0.0958573843547907
4.184,0.10467098178237566
4.186,0.09033133826039068
4.188,0.10688228687223786
4.19,0.10341493762394252
4.192,0.09609615477941061
4.194,0.12842459797699038
4.196,0.15001532135979292
4.198,0.12176159809298508
4.2,0.1556589053465264
4.202,0.15325567016090924
4.204,0.14817011563206828
4.206,0.1707939897939334
4.208,0.15291112428461257
4.21,0.17110335479962774
4.212,0.18346997671629175
4.214,0.21036743099786334
4.216,0.21493043018750357
4.218,0.20639242431319907
4.22,0.2384579725970044
4.222,0.22927135983187708
4.224,0.21430517458677892
4.226,0.26660248248025686
4.228,0.2733015293723816
4.23,0.28120194890867356
4.232,0.26908972232310074
4.234,0.28607952126272496
4.236,0.3025474439307112
4.238,0.3040143183604464
4.24,0.3285318502450238
4.242,0.3075641289668605
4.244,0.3301429310769967
4.246,0.31109811251435787
4.248,0.320766683242019
4.25,0.34939930893355764
4.252,0.32177830582767597
4.254,0.3486791535954982
4.256,0.34665100205679017
4.258,0.3596523193685959
4.26,0.3460339345723824
4.262,0.3400207503345422
4.264,0.35969172801672394
4.266,0.3341836188533208
4.268,0.33794999465724607
4.27,0.3388984837200513
4.272,0.3508183710348368
4.274,0.3433912386433208
4.276,0.34599580045324885
4.278,0.3379775303553233
4.28,0.33580748077224654
4.282,0.3502638885620381
4.284,0.33595090503362407
4.286,0.35193988504402024
4.288,0.32371767934467316
4.29,0.31557336468504843
4.292,0.29601667096850914
4.294,0.2970454630922168
4.296,0.28253178206526186
4.298,0.3256326331947894
4.3,0.3053614985030838
4.302,0.2794792893539083
4.304,0.26988371837837916
4.306,0.2838450196401906
4.308,0.2719051514728022
4.31,0.26721818413733783
4.312,0.24427274007943092
4.314,0.2365043522596397
4.316,0.2459927089549231
4.318,0.20786094514192727
4.32,0.22708580990884064
4.322,0.18774725749080082
4.324,0.22742677902495026
4.326,0.18455608067707963
4.328,0.19003021450859692
4.33,0.16589453736573775
4.332,0.17704246292040193
4.334,0.18182439425306682
4.336,0.16761912617875704
4.338,0.14996317349669405
4.34,0.16541184561152603
4.342,0.13865510511515705
4.344,0.12002849333611493
4.346,0.13090719892289956
4.348,0.13035103524043304
4.35,0.12447773436248101
4.352,0.11841998814615706
4.354,0.11912254997382146
4.356,0.12219071924756301
4.358,0.1067535631922141
4.36,0.10213537573475827
4.362,0.08964918442768607
4.364,0.10798937382635372
4.366,0.07652696238047188
4.368,0.0772786902736776
4.37,0.07783630676368587
4.372,0.10546300134546059
4.374,0.09897441236923032
4.376,0.1012564841679503
4.378,0.06427387706771095
4.38,0.10625089021706823
4.382,0.06463367965550405
4.384,0.0841601260427185
4.386,0.07557861835148119
4.388,0.06840941559434809
4.39,0.1017672410861328
4.392,0.09347823856205471
4.394,0.08835333765038111
4.396,0.11048456624394637
4.398,0.10930225212680023
4.4,0.08354824081793565
4.402,0.09841613895517401
4.404,0.07226282025620112
4.406,0.11678214272502621
4.408,0.1122008150650933
4.41,0.08790995433380785
4.412,0.10779364588752728
4.414,0.09842898284270045
4.416,0.11587435541177037
4.418,0.09879711357120176
4.42,0.07987015336922779
4.422,0.08800339418459506
4.424,0.09258160110331927
4.426,0.0912539545322513
4.428,0.10090794704659133
4.43,0.08502647552620765
4.432,0.0997575813838984
4.434,0.09641621156434933
4.436,0.09871774107956183
4.438,0.0876647985864186
4.44,0.11000258015498354
4.442,0.12376268229110596
4.444,0.09965010524591292
4.446,0.08815650594522738
4.448,0.08394315751707923
4.45,0.10099901562945038
4.452,0.07995477518178651
4.454,0.08989588758228044
4.456,0.08767501432370053
4.458,0.11138803981239037
4.46,0.08129993737901504
4.462,0.09474520318986311
4.464,0.0744283967015514
4.466,0.09690557709819608
4.468,0.09649068223299337
4.47,0.08553364391277703
4.472,0.09111947402786115
4.474,0.08354186451321566
4.476,0.07964614166508398
4.478,0.09814096704178193
4.48,0.09765274441217972
4.482,0.07778175691192565
4.484,0.0871375139353868
4.486,0.11273140727459685
4.488,0.10408466151642513
4.49,0.08348365581391723
4.492,0.09997111904617696
4.494,0.10287570803787255
4.496,0.08896906759407737
4.498,0.07482696000214879
4.5,0.09205639799768703
4.502,0.09061850077514101
4.504,0.08275601765565044
4.506,0.10035931120408507
4.508,0.090773938341501
4.51,0.11504134198734042
4.512,0.10992310980772645
4.514,0.08654369061959026
4.516,0.072905005192689
4.518,0.10678174696071582
4.52,0.1025544466960874
4.522,0.10183279135823928
4.524,0.08054210466789728
4.526,0.08664676849624595
4.528,0.10782930602777914
4.53,0.09366773995575778
4.532,0.08479231547985716
4.534,0.06829908393177814
4.536,0.06685076488975253
4.538,0.060168013842986465
4.54,0.07922041145689579
4.542,0.09306781891323682
4.544,0.09549694833176306
4.546,0.09626479112490981
4.548,0.06730370478533704
4.55,0.09834508759421612
4.552,0.0793397720445031
4.554,0.10780129068418597
4.556,0.099921071969612
4.558,0.06471692191751474
4.56,0.09133368561933386
4.562,0.11303545412325267
4.564,0.08059420191750968
4.566,0.11029377762487771
4.568,0.08200740271065361
4.57,0.07009430098433432
4.572,0.08992731635781982
4.574,0.09736330740431612
4.576,0.10204657027029919
4.578,0.10649422078313736
4.58,0.10333064185639418
4.582,0.07557930828166223
4.584,0.09217533918145665
4.586,0.06272682801414624
4.588,0.09894541277564234
4.59,0.062372499447207956
4.592,0.09815845897007848
4.594,0.09431106701684766
4.596,0.08728509771683501
4.598,0.10206340850832393
4.6,0.09431969140722908
4.602,0.09895516209059184
4.604,0.08310757388760812
4.606,0.07065848101797596
4.608,0.1040434626890828
4.61,0.09247326884048294
4.612,0.08485407990521507
4.614,0.10388893078153774
4.616,0.05561761626662477
4.618,0.09897839744858282
4.62,0.06317289975670552
4.622,0.08068051878578118
4.624,0.0658693249374632
4.626,0.0971908154742109
4.628,0.07974380658690405
4.63,0.08751978594123754
4.632,0.09599951413769926
4.634,0.08872364493273081
4.636,0.11214593904866149
4.638,0.11796435928912165
4.64,0.08672422924950494
4.642,0.09218630138709928
4.644,0.07886284927030283
4.646,0.09226049912102109
4.648,0.08860466454719913
4.65,0.07321414102517314
4.652,0.1131399554995611
4.654,0.0653239933601964
4.656,0.09537780079567895
4.658,0.09101647558239227
4.66,0.06284670601972692
4.662,0.06704018787849725
4.664,0.07676713710997346
4.666,0.09369702671671279
4.668,0.09117609727654884
4.67,0.09965163174411576
4.672,0.09506633123526975
4.674,0.12013891500303445
4.676,0.11416317603971869
4.678,0.1089154178176534
4.68,0.11490062440300725
4.682,0.13612280967645235
4.684,0.15083094467340782
4.686,0.12679944634310816
4.688,0.12941586946543343
4.69,0.1342766489663911
4.692,0.11610736647149258
4.694,0.13064944742239049
4.696,0.1277981863231427
4.698,0.1546219210008645
4.7,0.15838912768499352
4.702,0.14267698816636246
4.704,0.16528316023284786
4.706,0.1649679827153634
4.708,0.13416911305601403
4.71,0.1721340458987433
4.712,0.181672008217686
4.714,0.1837237070375252
4.716,0.1646042419327999
4.718,0.15184890210405855
4.72,0.18704805977045844
4.722,0.18070109202836426
4.724,0.15154169924754513
4.726,0.1601932829219754
4.728,0.16638120538635426
4.73,0.14907353770801118
4.732,0.15126522656858693
4.734,0.1681776755290869
4.736,0.10595289892205381
4.738,0.16276826770797276
4.74,0.13417358187619813
4.742,0.1131781976391873
4.744,0.14665359491547783
4.746,0.12590403480426818
4.748,0.10652131998317613
4.75,0.11816954047380343
4.752,0.08367326521240002
4.754,0.07536229967518256
4.756,0.08320633120700258
4.758,0.08232795024661169
4.76,0.07283175748652532
4.762,0.07922910825582556
4.764,0.050282744916943733
4.766,0.04123153647260667
4.768,-0.02950311761788428
4.77,-0.09400715164217864
4.772,-0.1191911827985893
4.774,-0.14301309282918423
4.776,-0.0983601759335089
4.778,-0.07312095998354863
4.78,0.3941162847402919
4.782,0.6299143323573339
4.784,0.8460148410511811
4.786,1.0
4.788,0.9550942880054356
4.79,0.7827425164293521
4.792,0.5652979557020859
4.794,0.3515055569216869
4.796,0.17683602093457512
4.798,0.10214761612183114
4.8,0.03605516274217897
4.802,0.036452131083953274
4.804,0.03594705584575375
4.806,-0.012019743604122564
4.808,-0.09188335982056103
4.81,-0.17375772172334403
4.812,-0.22779922539396158
4.814,-0.2246045528611729
4.816,-0.1767982105077545
4.818,-0.14480812547461433
4.82,-0.07646213849245422
4.822,0.011618969300566388
4.824,0.017213150699789542
4.826,0.03704741727949398
4.828,0.036330034277954865
4.83,0.06479058154755686
4.832,0.0453499683161056
4.834,0.035510736449576065
4.836,0.07225327665347148
4.838,0.045605519256778526
4.84,0.055728921124808574
4.842,0.04535906749003653
4.844,0.09098458014831955
4.846,0.08060573945951544
4.848,0.0936178647666073
4.85,0.04969619926192272
4.852,0.06944546647605769
4.854,0.08819947242154935
4.856,0.06957625190620928
4.858,0.09354355188579748
4.86,0.10750577540869037
4.862,0.10876907017535789
4.864,0.13757936916460395
4.866,0.12524978823462357
4.868,0.10870795718968805
4.87,0.12309970206068449
4.872,0.15046190362236547
4.874,0.13526905883607998
4.876,0.2060592986062828
4.878,0.18642933498231457
4.88,0.1900139951805561
4.882,0.18393784169321017
4.884,0.20144256697209628
4.886,0.21135832014612943
4.888,0.21382901423646933
4.89,0.22188153194410912
4.892,0.240712419073477
4.894,0.19886003466461852
4.896,0.19967414765776229
4.898,0.23725149455863662
4.9,0.2424466937530788
4.902,0.26404440267202356
4.904,0.2674670509716304
4.906,0.2506980699805581
4.908,0.2537491042761136
4.91,0.2637610465262975
4.912,0.2854468493915409
4.914,0.3042388258201108
4.916,0.29811199845849623
4.918,0.2790188471853447
4.92,0.27412782857232915
4.922,0.2871049428886754
4.924,0.30660779979883224
4.926,0.30017319992051766
4.928,0.292984777889739
4.93,0.32713792047522494
4.932,0.29063021838044695
4.934,0.2953144917656379
4.936,0.2747304572085412
4.938,0.30997795248323606
4.94,0.3067147596370453
4.942,0.2818468912849925
4.944,0.3089361687548262
4.946,0.2864839389156487
4.948,0.271698706880052
4.95,0.2715927440247955
4.952,0.26811723265290466
4.954,0.24635158470906607
4.956,0.2670825612747216
4.958,0.2521070932715909
4.96,0.24548454239904616
4.962,0.22252925049616618
4.964,0.23851472784713643
4.966,0.2300717972382513
4.968,0.20918697269575937
4.97,0.19794586884800539
4.972,0.2188135786072979
4.974,0.19551736373144968
4.976,0.20561784914201425
4.978,0.1874446275488421
4.98,0.192843746592632
4.982,0.1385963175874042
4.984,0.16304265567136014
4.986,0.12745942241930452
4.988,0.14106688629755995
4.99,0.12357399876582968
4.992,0.12075027626591883
4.994,0.09150552085135395
4.996,0.10127481590858896
4.998,0.09989106680035244
